time,amplitude
0.0009017132551849549,0.003964830531603432
0.004809137360985982,0.004519668783687627
0.00871656146678701,0.004964236193558219
0.012623985572588037,0.005273023092267411
0.016531409678389064,0.005429043476566156
0.02043883378419009,0.005423835008904161
0.02434625788999112,0.0052574590174298864
0.028253681995792146,0.004938500495990541
0.03216110610159317,0.004484068104132088
0.0360685302073942,0.003919583745700354
0.03997595431319523,0.0032697672528708664
0.043883378418996255,0.002566868002159754
0.04779080252479728,0.0018439526215592475
0.05169822663059831,0.0011290467894714022
0.05560565073639934,0.00044513523470809946
0.059513074842200364,-0.0001898382635089537
0.06342049894800139,-0.0007629708755482224
0.06732792305380242,-0.0012664007213683496
0.07123534715960345,-0.001697306870518148
0.07514277126540447,-0.0020546856590592222
0.0790501953712055,-0.002343104098304042
0.08295761947700653,-0.0025723869210305663
0.08686504358280756,-0.0027515597157394887
0.09077246768860858,-0.0028888403301121947
0.09467989179440961,-0.0029916388710107614
0.09858731590021064,-0.0030665577044779605
0.10249474000601166,-0.003119391455737256
0.10640216411181269,-0.0031551270091928025
0.11030958821761372,-0.0031779435084294495
0.11421701232341475,-0.003191212356212737
0.11812443642921577,-0.0031974972144888985
0.1220318605350168,-0.0031985540043848616
0.12593928464081783,-0.0031955090409158714
0.12984670874661886,-0.003189371513927472
0.13375413285241988,-0.0031803050892362373
0.1376615569582209,-0.0031684058511388872
0.14156898106402194,-0.003153787749213793
0.14547640516982296,-0.003136582598320977
0.149383829275624,-0.0031169400786021126
0.15329125338142502,-0.003095027735480525
0.15719867748722605,-0.0030710309796611913
0.16110610159302707,-0.0030451530871307385
0.1650135256988281,-0.0030176151991574457
0.16892094980462868,-0.0029886563222912468
0.1728283739104297,-0.0029585333283637166
0.17673579801623074,-0.002927520954488092
0.18064322212203177,-0.0028959118030592573
0.1845506462278328,-0.0028640163417537477
0.18845807033363382,-0.0028321235248155536
0.19236549443943485,-0.0028005988643833406
0.19627291854523587,-0.00276995302222291
0.2001803426510369,-0.0027406477222209763
0.20408776675683793,-0.0027130910010325663
0.20799519086263896,-0.0026876372080810204
0.21190261496843998,-0.0026645870055579898
0.215810039074241,-0.00264418736842344
0.21971746318004204,-0.0026266315844056475
0.22362488728584307,-0.002612059254001202
0.2275323113916441,-0.0026005562904750064
0.23143973549744512,-0.0025921549198602745
0.23534715960324615,-0.0025868336809585337
0.23925458370904717,-0.002584517425339624
0.2431620078148482,-0.0025850773173416975
0.24706943192064923,-0.002588330834071219
0.25097685602645026,-0.0025940417654029655
0.2548842801322513,-0.002601920213980027
0.2587917042380523,-0.002611685866690607
0.26269912834385334,-0.0026230365578699287
0.26660655244965437,-0.0026354203669123302
0.2705139765554554,-0.002648310114918289
0.2744214006612564,-0.002661217126048282
0.27832882476705745,-0.002673691227522787
0.2822362488728585,-0.0026853207496222806
0.2861436729786595,-0.0026957325256872413
0.29005109708446053,-0.002704591892118146
0.29395852119026156,-0.002711602688375473
0.2978659452960626,-0.0027165072569797
0.3017733694018636,-0.002719086443511305
0.30568079350766464,-0.002719159596610766
0.30958821761346567,-0.002716584567978561
0.3134956417192667,-0.002711257712375169
0.3174030658250677,-0.0027031138876210683
0.32131048993086875,-0.0026921304778151057
0.3252179140366698,-0.0026898310755038464
0.3291253381424708,-0.002687048307962483
0.33303276224827183,-0.002666542509018038
0.33694018635407286,-0.0026273758505487243
0.3408476104598739,-0.00258491234248395
0.3447550345656749,-0.0025708178328043133
0.34866245867147594,-0.0026330600075416062
0.35256988277727697,-0.0028359083907788132
0.356477306883078,-0.003271086620787481
0.360384730988879,-0.0040566441896018
0.36429215509468005,-0.0051034458508346404
0.3681995792004811,-0.006038298517106473
0.3721070033062821,-0.0062043367274591844
0.37601442741208313,-0.0048955128920957
0.37992185151788416,-0.0012854845776437262
0.3838292756236852,0.004806510488240769
0.3877366997294862,0.012493214483837611
0.39164412383528724,0.019817938471081833
0.39555154794108827,0.024014480570289206
0.3994589720468893,0.02331609990058563
0.4033663961526903,0.017840060242689165
0.40727382025849135,0.009575398021932817
0.4111812443642924,0.0016330597836848775
0.4150886684700934,-0.0043656921299265235
0.41899609257589443,-0.007731777144152274
0.42290351668169546,-0.008574357654646482
0.4268109407874965,-0.007662093333592184
0.4307183648932975,-0.005969789648353284
0.43462578899909854,-0.004321873037424709
0.43853321310489957,-0.003147374105957254
0.4424406372107006,-0.0024780561623535813
0.4463480613165016,-0.002104614603397417
0.45025548542230265,-0.001884731960504679
0.4541629095281037,-0.0017142689253723527
0.4580703336339047,-0.0015255702249334494
0.46197775773970573,-0.0012874646213570085
0.46588518184550676,-0.001004215243649672
0.4697926059513078,-0.0006769339554252295
0.4737000300571088,-0.0002970916133702003
0.47760745416290984,0.00013747758487186014
0.48151487826871087,0.0006267395989909043
0.4854223023745119,0.0011684605460103934
0.4893297264803129,0.0017582067002872967
0.49323715058611395,0.0023893613141329107
0.497144574691915,0.0030588010473134655
0.501051998797716,0.0037526402717661484
0.5049594229035166,0.0044495597094855515
0.5088668470093176,0.005129688613886874
0.5127742711151186,0.005774604769805441
0.5166816952209197,0.006367334493497035
0.5205891193267207,0.006892352632637798
0.5244965434325217,0.00733558256632425
0.5284039675383227,0.007684396205073274
0.5323113916441238,0.007927613990822126
0.5362188157499248,0.008055504896928429
0.5401262398557258,0.00805978642817018
0.5440336639615269,0.007931493333989117
0.5479410880673279,0.007667955380473369
0.5518485121731289,0.007287998468954644
0.5557559362789299,0.0068110507258909
0.559663360384731,0.006255618123377851
0.563570784490532,0.005639284479148958
0.567478208596333,0.004978711456575436
0.571385632702134,0.004289638564666257
0.5752930568079351,0.0035868831580681384
0.5792004809137361,0.0028843404370655556
0.5831079050195371,0.002194983447580735
0.5870153291253382,0.0015308630811736515
0.5909227532311392,0.0009031080750420382
0.5948301773369402,0.0003219250120213759
0.5987376014427412,-0.00020340167941509252
0.6026450255485423,-0.0006653438059127123
0.6065524496543433,-0.0010650056480408432
0.6104598737601443,-0.0014075977702383822
0.6143672978659453,-0.0016981785791981444
0.6182747219717464,-0.0019416469977116308
0.6221821460775474,-0.0021427424646690268
0.6260895701833484,-0.002306044935059205
0.6299969942891495,-0.0024359748799697187
0.6339044183949505,-0.002536793286586812
0.6378118425007515,-0.0026126016581954096
0.6417192666065525,-0.0026673420141791245
0.6456266907123536,-0.0027047968900202526
0.6495341148181546,-0.0027285893372997784
0.6534415389239556,-0.0027421829236973674
0.6573489630297566,-0.002748881732991374
0.6612563871355577,-0.002751456236038882
0.6651638112413587,-0.0027506205786679725
0.6690712353471597,-0.002747026840996597
0.6729786594529608,-0.002741324403545766
0.6768860835587618,-0.002734096432215414
0.6807935076645628,-0.0027258598782843976
0.6847009317703638,-0.0027170654784104955
0.6886083558761649,-0.0027080977546304103
0.6925157799819659,-0.002699275014359766
0.6964232040877669,-0.0026908493503931103
0.700330628193568,-0.0026830066409039128
0.704238052299369,-0.002675866549444566
0.70814547640517,-0.0026694825249463853
0.712052900510971,-0.0026638418017196084
0.7159603246167721,-0.0026588653994533955
0.7198677487225731,-0.002654413662178277
0.7237751728283741,-0.002650616125318574
0.7276825969341751,-0.0026475881922324294
0.7315900210399762,-0.0026452951160600368
0.7354974451457772,-0.0026436892473758974
0.7394048692515782,-0.0026427100341888245
0.7433122933573793,-0.00264228402194194
0.7472197174631803,-0.0026423248535126765
0.7511271415689813,-0.0026427332692127753
0.7550345656747823,-0.002643397106788289
0.7589419897805834,-0.00264419130141958
0.7628494138863844,-0.002644977885721319
0.7667568379921854,-0.0026456059897424886
0.7706642620979864,-0.00264591184096638
0.7745716862037875,-0.002645718764310595
0.7784791103095885,-0.002644837182127045
0.7823865344153895,-0.0026430646142019515
0.7862939585211906,-0.002640185677755846
0.7902013826269916,-0.002635972087443569
0.7941088067327926,-0.0026301826553542726
0.7980162308385936,-0.0026225632910114173
0.8019236549443947,-0.0026128337920269078
0.8058310790501957,-0.0026006073844968202
0.8097385031559967,-0.0025859222506149976
0.8136459272617977,-0.0025689459214743087
0.8175533513675988,-0.002549855764864127
0.8214607754733998,-0.0025288389852703304
0.8253681995792008,-0.0025060926238753
0.8292756236850019,-0.00248182355855792
0.8331830477908029,-0.0024562485038935804
0.8370904718966035,-0.0024295940111541767
0.8409978960024045,-0.0024020964683080996
0.8449053201082055,-0.0023740021000202526
0.8488127442140065,-0.00234556696765204
0.8527201683198076,-0.0023170569692613704
0.8566275924256086,-0.0022887478396026563
0.8605350165314096,-0.0022609251501268133
0.8644424406372107,-0.0022338843089812622
0.8683498647430117,-0.0022079305610099263
0.8722572888488127,-0.002183378987753234
0.8761647129546137,-0.002160554507448116
0.8800721370604148,-0.0021397918750280086
0.8839795611662158,-0.0021214356821228518
0.8878869852720168,-0.0021058403570590875
0.8917944093778178,-0.0020933701648596643
0.8957018334836189,-0.002084399207244033
0.8996092575894199,-0.002085966543623333
0.9035166816952209,-0.002099426185018644
0.907424105801022,-0.002103922734551174
0.911331529906823,-0.0021053940544193406
0.915238954012624,-0.0021388890624935496
0.919146378118425,-0.002268567732316196
0.9230538022242261,-0.0025877010931016618
0.9269612263300271,-0.0032179719280951698
0.9308686504358281,-0.0042024031613995564
0.9347760745416291,-0.005291133734026055
0.9386834986474302,-0.005995100291910216
0.9425909227532312,-0.005599025815603439
0.9464983468590322,-0.0033699348071990483
0.9504057709648333,0.0012964476122554035
0.9543131950706343,0.008207670187543812
0.9582206191764353,0.016015848492520992
0.9621280432822363,0.022268686615207135
0.9660354673880374,0.024379699269720497
0.9699428914938384,0.02135841032604669
0.9738503155996394,0.014221052349329131
0.9777577397054404,0.005819124457167167
0.9816651638112415,-0.0014094290506284479
0.9855725879170425,-0.006277018839924792
0.9894800120228435,-0.008440151002998195
0.9933874361286446,-0.008376368587292729
0.9972948602344456,-0.0069754606337018655
1.0012022843402466,-0.005217775163452414
1.0051097084460476,-0.00374222296535197
1.0090171325518487,-0.0027953190619913314
1.0129245566576497,-0.002258600975427265
1.0168319807634507,-0.0019460386953892056
1.0207394048692517,-0.0017367689545780354
1.0246468289750528,-0.0015434857946790537
1.0285542530808538,-0.0013138086138206847
1.0324616771866548,-0.0010302821665744777
1.0363691012924559,-0.000704910330891271
1.0402765253982569,-0.0003308635663246089
1.044183949504058,9.59444142507699e-05
1.048091373609859,0.0005742102911757061
1.05199879771566,0.0011001480158347057
1.055906221821461,0.0016674888106559393
1.059813645927262,0.0022674811691112415
1.063721070033063,0.002889218755840251
1.067628494138864,0.003531381521932251
1.071535918244665,0.0041929550672841365
1.0754433423504661,0.0048688917545459875
1.0793507664562672,0.0055535699397845344
1.0832581905620682,0.006240793972483157
1.0871656146678692,0.006923794195541882
1.0910730387736702,0.0075952269452773825
1.0949804628794713,0.00824778878940229
1.0988878869852723,0.00887669342353708
1.1027953110910733,0.009472097604470254
1.1067027351968743,0.010024117540453126
1.1106101593026754,0.010523972841247405
1.1145175834084764,0.01096398651812519
1.1184250075142774,0.011337584983868972
1.1223324316200785,0.011639298052771635
1.1262398557258795,0.011864758940636457
1.1301472798316805,0.012010704264777104
1.1340547039374815,0.012074974044017642
1.1379621280432826,0.01205651169869252
1.1418695521490836,0.011955364050646584
1.1457769762548846,0.011772681323235074
1.1496844003606856,0.011510717141323623
1.1535918244664867,0.011172828531288249
1.1574992485722877,0.010763475921015371
1.1614066726780887,0.01028821536795051
1.1653140967838898,0.009749705284979628
1.1692215208896908,0.009154487463662635
1.1731289449954918,0.008513241061855989
1.1770363691012928,0.00783601963793947
1.1809437932070939,0.007132251150816192
1.1848512173128949,0.006410737959912595
1.188758641418696,0.005679656825178448
1.192666065524497,0.004946558907086849
1.196573489630298,0.004218369766634224
1.200480913736099,0.0035013893653403237
1.2043883378419,0.0028012920652482317
1.208295761947701,0.0021231266289243617
1.212203186053502,0.0014713162194584517
1.216110610159303,0.0008496584004635682
1.2200180342651041,0.0002613251360761102
1.2239254583709052,-0.0002911372090442059
1.2278328824767062,-0.0008058078697143131
1.2317403065825072,-0.0012813916802278426
1.2356477306883082,-0.0017172190743550801
1.2395551547941093,-0.0021128254297983454
1.2434625788999103,-0.0024664272614921623
1.2473700030057113,-0.0027803383728808367
1.2512774271115124,-0.0030575329527013986
1.2551848512173134,-0.003300869645174451
1.2590922753231144,-0.0035130915500041666
1.2629996994289154,-0.003696826222378289
1.2669071235347165,-0.003854585672968131
1.2708145476405175,-0.0039887663679285795
1.2747219717463185,-0.00410164922889809
1.2786293958521195,-0.004195399632998691
1.2825368199579206,-0.004272067412835976
1.2864442440637216,-0.004333586856499118
1.2903516681695226,-0.004381776707560854
1.2942590922753237,-0.004418340165077496
1.2981665163811247,-0.004444864883588922
1.3020739404869257,-0.004462822973118586
1.3059813645927267,-0.004473570999173511
1.3098887886985278,-0.004478349982744288
1.3137962128043288,-0.004478285400305085
1.3177036369101298,-0.004474387183813638
1.3216110610159308,-0.004467549720711247
1.3255184851217319,-0.004458551853922791
1.329425909227533,-0.004448056881856724
1.333333333333334,-0.004436612558405056
1.337240757439134,-0.004424651092943382
1.341148181544935,-0.004412489150330855
1.3450556056507361,-0.004400327850910216
1.3489630297565371,-0.0043882527705077536
1.3528704538623382,-0.00437623394043336
1.3567778779681392,-0.004364125847480464
1.3606853020739402,-0.004351667433926081
1.3645927261797413,-0.004338500146816784
1.3685001502855423,-0.00432542901907901
1.3724075743913433,-0.004313084544020143
1.3763149984971443,-0.004301447170424642
1.3802224226029454,-0.00429049164642453
1.3841298467087464,-0.004280187019499399
1.3880372708145474,-0.004270496636476412
1.3919446949203484,-0.0042613781435302985
1.3958521190261495,-0.004252783486183358
1.3997595431319505,-0.0042446589093054566
1.4036669672377515,-0.004236944957114031
1.4075743913435526,-0.0042295764731740855
1.4114818154493536,-0.0042224826003981935
1.4153892395551546,-0.004215586781046497
1.4192966636609556,-0.0042088067567267054
1.4232040877667567,-0.004202054568394099
1.4271115118725577,-0.0041952365563515245
1.4310189359783587,-0.004188253360249398
1.4349263600841597,-0.004180999919085706
1.4388337841899608,-0.004173365471206
1.4427412082957618,-0.004165233554303402
1.4466486324015628,-0.0041564820054186035
1.4505560565073639,-0.004146982960939864
1.4544634806131649,-0.0041366028566030095
1.458370904718966,-0.004125202427491439
1.462278328824767,-0.004112636708036115
1.466185752930568,-0.004098755032015573
1.470093177036369,-0.004083401032555915
1.47400060114217,-0.004066412642130811
1.477908025247971,-0.004047622092561501
1.481815449353772,-0.0040268559150167926
1.485722873459573,-0.004003934940013064
1.4896302975653741,-0.003978674297414258
1.4935377216711752,-0.0039508834164318895
1.4974451457769762,-0.003920377173941511
1.5013525698827772,-0.0038873464280024177
1.5052599939885782,-0.00385241274862063
1.5091674180943793,-0.0038161837915717885
1.5130748422001803,-0.0037792268668349525
1.5169822663059813,-0.0037420689385925963
1.5208896904117823,-0.0037051966252306112
1.5247971145175834,-0.0036690561993383054
1.5287045386233844,-0.0036340535877084027
1.5326119627291854,-0.0036005543713370446
1.5365193868349865,-0.0035688837854237878
1.5404268109407875,-0.003539326719371607
1.5443342350465885,-0.0035121277167868927
1.5482416591523895,-0.0034874909754794518
1.5521490832581906,-0.0034655803474625073
1.5560565073639916,-0.0034465193389527
1.5599639314697926,-0.003430391110370086
1.5638713555755936,-0.003417238476338139
1.5677787796813947,-0.003407063905683748
1.5716862037871957,-0.0033998295214372203
1.5755936278929967,-0.0033954571008322776
1.5795010519987978,-0.0033938280753060593
1.5834084761045988,-0.0033947835304991222
1.5873159002103998,-0.0033981242062554374
1.5912233243162008,-0.0034036104966223947
1.5951307484220019,-0.0034109624498507986
1.599038172527803,-0.003419859768394872
1.602945596633604,-0.0034299418089122524
1.606853020739405,-0.0034408075822639954
1.610760444845206,-0.0034520157535145725
1.614667868951007,-0.003463084641931872
1.618575293056808,-0.003473492220987198
1.622482717162609,-0.0034826761183552723
1.62639014126841,-0.0034900336159142315
1.630297565374211,-0.00349492164974563
1.6342049894800121,-0.00349665681013444
1.6381124135858132,-0.003494635886352763
1.6420198376916142,-0.0034895899477066375
1.6459272617974152,-0.0034817586055756566
1.6498346859032162,-0.003471130807092366
1.6537421100090173,-0.0034577422634499183
1.6576495341148183,-0.0034416754499020734
1.6615569582206193,-0.003423059605763196
1.6654643823264204,-0.0034020707344082583
1.6693718064322214,-0.003378931603272837
1.6732792305380224,-0.0033539117438531173
1.6771866546438234,-0.0033273274517058894
1.6810940787496245,-0.0032995417864485504
1.6850015028554255,-0.0032712633141910087
1.6889089269612265,-0.0032492315089110027
1.6928163510670275,-0.003229170197310402
1.6967237751728286,-0.0032087070712741132
1.7006311992786296,-0.003194094908523306
1.7045386233844306,-0.0032002115726154127
1.7084460474902317,-0.0032505600129441306
1.7123534715960327,-0.003377268264739419
1.7162608957018337,-0.003621089449067501
1.7201683198076347,-0.004031401772830864
1.7240757439134358,-0.0046662085287682556
1.7279831680192368,-0.005568965429474685
1.7318905921250378,-0.0066404353299012115
1.7357980162308388,-0.007691061455586768
1.7397054403366399,-0.008483572876173238
1.743612864442441,-0.008733048410171702
1.747520288548242,-0.008106916624962433
1.751427712654043,-0.006256658880552074
1.755335136759844,-0.0029500259963820717
1.759242560865645,0.0020110387649549845
1.763149984971446,0.008510941504725278
1.767057409077247,0.01608619154727709
1.770964833183048,0.023925401440040794
1.7748722572888491,0.030869534637072784
1.7787796813946501,0.0355859089007357
1.7826871055004512,0.037206144912582874
1.7865945296062522,0.03542084667605622
1.7905019537120532,0.03045348005541815
1.7944093778178543,0.02306037277575159
1.7983168019236553,0.014530714422959931
1.8022242260294563,0.0063363897903651245
1.8061316501352573,-0.0008057285279064533
1.8100390742410584,-0.006420808285100773
1.8139464983468594,-0.010264319644194511
1.8178539224526604,-0.012323837990371019
1.8217613465584614,-0.012819043931020332
1.8256687706642625,-0.012141221387453242
1.8295761947700635,-0.01070122858744026
1.8334836188758645,-0.00894753752318469
1.8373910429816656,-0.0072196376463155125
1.8412984670874666,-0.005742007444836868
1.8452058911932676,-0.004624114443128061
1.8491133152990686,-0.003860415201943544
1.8530207394048697,-0.0033441430972890613
1.8569281635106707,-0.0029943624848376028
1.8608355876164717,-0.002751667885827659
1.8647430117222727,-0.002564493424826732
1.8686504358280738,-0.0023923274516275232
1.8725578599338748,-0.0022057125412479357
1.8764652840396758,-0.0019862454939310733
1.8803727081454769,-0.0017265773351452386
1.8842801322512779,-0.001430413315583938
1.888187556357079,-0.0011066257558748115
1.89209498046288,-0.0007477640125629402
1.896002404568681,-0.00035097383343053235
1.899909828674482,8.496728254553431e-05
1.903817252780283,0.0005603775249432752
1.907724676886084,0.0010746707718956002
1.911632100991885,0.001626356590090312
1.915539525097686,0.0022130402347701078
1.9194469492034871,0.00283142264973258
1.9233543733092882,0.0034773004673302106
1.9272617974150892,0.004145566008470379
1.9311692215208902,0.004830207282615358
1.9350766456266912,0.005524307987782313
1.9389840697324923,0.006220047510543303
1.9428914938382933,0.0069099050589831205
1.9467989179440943,0.00758942502282512
1.9507063420498953,0.008246356164202856
1.9546137661556964,0.008868460269893916
1.9585211902614974,0.009444755218504481
1.9624286143672984,0.009965514980469322
1.9663360384730995,0.010422269618051795
1.9702434625789005,0.010807805285343851
1.9741508866847015,0.011116164228266029
1.9780583107905025,0.011342644784567457
1.9819657348963036,0.011483801383825858
1.9858731590021046,0.01153744454744754
1.9897805831079056,0.011502640888667402
1.9936880072137066,0.011379713112548937
1.9975954313195077,0.011170240015984224
2.001502855425308,0.010877056487694006
2.005410279531109,0.010504253508227413
2.00931770363691,0.010055694016037271
2.013225127742711,0.009533935364421278
2.017132551848512,0.008950587134221899
2.021039975954313,0.008317482374808872
2.024947400060114,0.0076457316840118006
2.028854824165915,0.006945723208120138
2.032762248271716,0.006227122641883204
2.036669672377517,0.005498873228510164
2.040577096483318,0.0047691957596700555
2.044484520589119,0.004045588575491763
2.04839194469492,0.003334827564564034
2.052299368800721,0.0026429661639354686
2.056206792906522,0.001975335359114533
2.0601142170123232,0.0013365436840695449
2.0640216411181243,0.0007304772212286832
2.0679290652239253,0.00016029960147997957
2.0718364893297263,-0.0003715479958286711
2.0757439134355273,-0.0008633468428895195
2.0796513375413284,-0.0013141006634349583
2.0835587616471294,-0.001723281561573185
2.0874661857529304,-0.002089756761250804
2.0913736098587314,-0.002415772917313196
2.0952810339645325,-0.0027041689087905483
2.0991884580703335,-0.0029576800531593674
2.1030958821761345,-0.0031789381063424774
2.1070033062819356,-0.003370471262709022
2.1109107303877366,-0.003534704155074466
2.1148181544935376,-0.0036739578547005896
2.1187255785993386,-0.0037904498712954945
2.1226330027051397,-0.0038862941530135985
2.1265404268109407,-0.003963501086455644
2.1304478509167417,-0.004023977496668686
2.1343552750225427,-0.004069526647146103
2.1382626991283438,-0.004101848239827588
2.142170123234145,-0.00412253841509916
2.146077547339946,-0.004133089751793149
2.149984971445747,-0.004134891267188211
2.153892395551548,-0.004129228417009313
2.157799819657349,-0.004117283095427748
2.16170724376315,-0.0041001336350611275
2.165614667868951,-0.004078754806973377
2.169522091974752,-0.004054017820674747
2.173429516080553,-0.004026690324121801
2.177336940186354,-0.003997436403717429
2.181244364292155,-0.003966816584310828
2.185151788397956,-0.003935287829197526
2.189059212503757,-0.003903203540119367
2.192966636609558,-0.0038708135572645117
2.196874060715359,-0.003838264159267438
2.20078148482116,-0.0038067148799344544
2.2046889089269612,-0.003777507566375358
2.2085963330327623,-0.0037507232227532187
2.2125037571385633,-0.003726420456563046
2.2164111812443643,-0.003704636998285282
2.2203186053501653,-0.0036853897013858017
2.2242260294559664,-0.0036686745423159133
2.2281334535617674,-0.0036544666205123575
2.2320408776675684,-0.003642720158397308
2.2359483017733695,-0.0036333685013783725
2.2398557258791705,-0.003626324117848589
2.2437631499849715,-0.003621478599186432
2.2476705740907725,-0.0036187026597558052
2.2515779981965736,-0.003617846136906048
2.2554854223023746,-0.0036187379909719316
2.2593928464081756,-0.0036211863052736603
2.2633002705139766,-0.003624978286116871
2.2672076946197777,-0.0036298802627926343
2.2711151187255787,-0.0036356376875774526
2.2750225428313797,-0.0036419751357332623
2.2789299669371808,-0.0036485963055074323
2.282837391042982,-0.0036551840181327636
2.286744815148783,-0.0036614002178274913
2.290652239254584,-0.0036668859717952835
2.294559663360385,-0.00367126147022524
2.298467087466186,-0.0036741260262918947
2.302374511571987,-0.003675058076155214
2.306281935677788,-0.003673615178960596
2.310189359783589,-0.0036693340168388747
2.31409678388939,-0.0036617303949063144
2.318004207995191,-0.0036502992412646125
2.321911632100992,-0.0036351421864958215
2.325819056206793,-0.00361729901350117
2.329726480312594,-0.003596987567255401
2.333633904418395,-0.003574424977011566
2.337541328524196,-0.0035498514706172784
2.341448752629997,-0.003523530374514716
2.345356176735798,-0.003495748113740622
2.3492636008415992,-0.0034668142119263006
2.3531710249474003,-0.003437061291297623
2.3570784490532013,-0.0034068450726750226
2.3609858731590023,-0.003376519729144932
2.3648932972648034,-0.0033463788993157127
2.3688007213706044,-0.0033167245915539556
2.3727081454764054,-0.0032878276669524673
2.3766155695822064,-0.0032599249260314087
2.3805229936880075,-0.003233219108738297
2.3844304177938085,-0.003207878894448005
2.3883378418996095,-0.0031840389019627637
2.3922452660054105,-0.003161798860176721
2.3961526901112116,-0.0031412104640707377
2.4000601142170126,-0.0031222860733033527
2.4039675383228136,-0.003105010673344644
2.4078749624286147,-0.0030893420398475386
2.4117823865344157,-0.00307521073864781
2.4156898106402167,-0.003062520125764079
2.4195972347460177,-0.0030511501407538047
2.4235046588518188,-0.003040977070450259
2.42741208295762,-0.0030318573295078357
2.431319507063421,-0.003023649276784138
2.435226931169222,-0.0030162167585638926
2.439134355275023,-0.003009429108558949
2.443041779380824,-0.0030031611479082784
2.446949203486625,-0.0029972931851779743
2.450856627592426,-0.003004735847064114
2.454764051698227,-0.003019022062914753
2.458671475804028,-0.0030124133452887813
2.462578899909829,-0.0029856634258095087
2.46648632401563,-0.002968521516752859
2.470393748121431,-0.0030197323110473704
2.474301172227232,-0.003227035982274197
2.478208596333033,-0.003746187723464404
2.482116020438834,-0.0053136017129130405
2.486023444544635,-0.006983263299365867
2.4899308686504362,-0.00754942745496753
2.4938382927562373,-0.006260965308475013
2.4977457168620383,-0.002821364145257652
2.5016531409678393,0.0026112725927029167
2.5055605650736403,0.009424225306812636
2.5094679891794414,0.01655015824186518
2.5133754132852424,0.02141431317173119
2.5172828373910434,0.02112755688928456
2.5211902614968444,0.015654699872855227
2.5250976856026455,0.007305244697002177
2.5290051097084465,-0.00035681777930876134
2.5329125338142475,-0.005661663075980065
2.5368199579200486,-0.00806560228443717
2.5407273820258496,-0.008013125525915064
2.5446348061316506,-0.006563525236846727
2.5485422302374516,-0.004826995307021114
2.5524496543432527,-0.0034916810698208
2.5563570784490537,-0.0027348875738714713
2.5602645025548547,-0.0023313191837371675
2.5641719266606557,-0.0020999222483052806
2.5680793507664568,-0.0019193419440007222
2.571986774872258,-0.0017136012477674436
2.575894198978059,-0.001452386340183019
2.57980162308386,-0.0011441274648029064
2.583709047189661,-0.0007824435106815423
2.587616471295462,-0.000361492139124861
2.591523895401263,0.00011991905417264447
2.595431319507064,0.0006601037787347288
2.599338743612865,0.0012544970493033965
2.603246167718666,0.0018956551858388979
2.607153591824467,0.00257684543349217
2.611061015930268,0.0032858863352621392
2.614968440036069,0.003997339651409798
2.61887586414187,0.004687325031616393
2.622783288247671,0.0053339135613574545
2.626690712353472,0.005917127761902806
2.630598136459273,0.006418941590316562
2.6345055605650742,0.006823280439457122
2.6384129846708753,0.007116021137977175
2.6423204087766763,0.007284991950323702
2.6462278328824773,0.007319972576737975
2.6501352569882783,0.007210690556833049
2.6540426810940794,0.006953098765375822
2.6579501051998804,0.0065688064313291
2.6618575293056814,0.006080612435092774
2.6657649534114825,0.00551015011625421
2.6696723775172826,0.004877887273588399
2.6735798016230836,0.004203126165057366
2.6774872257288846,0.003504003507811039
2.6813946498346857,0.0027974904781866844
2.6853020739404867,0.0020993927117090444
2.6892094980462877,0.0014243503030903285
2.6931169221520888,0.0007858378062302338
2.69702434625789,0.00019616423421592658
2.700931770363691,-0.00033352694067795806
2.704839194469492,-0.0007949327659941609
2.708746618575293,-0.0011906503988945547
2.712654042681094,-0.0015267344947401988
2.716561466786895,-0.001809018771077267
2.720468890892696,-0.0020431285201093427
2.724376314998497,-0.0022344806086974133
2.728283739104298,-0.002388283478359874
2.732191163210099,-0.0025095371452725276
2.7360985873159,-0.0026030332002685815
2.740006011421701,-0.0026733548088386516
2.743913435527502,-0.0027248767111307587
2.747820859633303,-0.002761765221950331
2.751728283739104,-0.002787978230760207
2.755635707844905,-0.0028072652016806247
2.759543131950706,-0.0028220827944227113
2.7634505560565072,-0.00283289804897284
2.7673579801623083,-0.002840276030323887
2.7712654042681093,-0.002844706631809615
2.7751728283739103,-0.002846604567978017
2.7790802524797114,-0.002846309374591321
2.7829876765855124,-0.002844085408625987
2.7868951006913134,-0.002840121848272707
2.7908025247971144,-0.002834532692936407
2.7947099489029155,-0.0028273567632362447
2.7986173730087165,-0.002818557701005611
2.8025247971145175,-0.0028080239692921303
2.8064322212203185,-0.002795568852357658
2.8103396453261196,-0.0027809304556782846
2.8142470694319206,-0.002763801754435506
2.8181544935377216,-0.0027442218164415925
2.8220619176435227,-0.0027224317455777406
2.8259693417493237,-0.0026986722610706994
2.8298767658551247,-0.0026731933785894063
2.8337841899609257,-0.0026462544102449875
2.8376916140667268,-0.002618123964590757
2.841599038172528,-0.002589079946622218
2.845506462278329,-0.002559409557777062
2.84941388638413,-0.0025294092959351686
2.853321310489931,-0.002499384955418606
2.857228734595732,-0.002469651626991632
2.861136158701533,-0.0024405336978606906
2.865043582807334,-0.0024123648516744165
2.868951006913135,-0.0023854880685236315
2.872858431018936,-0.0023602556249413464
2.876765855124737,-0.0023370290939027606
2.880673279230538,-0.0023161793448252615
2.884580703336339,-0.002298086543568425
2.88848812744214,-0.00228314467620156
2.892395551547941,-0.0022717714882632477
2.896302975653742,-0.002263891544735149
2.900210399759543,-0.0022592678444827608
2.9041178238653442,-0.0022576544897983343
2.9080252479711453,-0.002258796686400874
2.9119326720769463,-0.0022624307434361383
2.9158400961827473,-0.0022682840734766395
2.9197475202885483,-0.002276075192521644
2.9236549443943494,-0.002285513719997171
2.9275623685001504,-0.0022963003787559964
2.9314697926059514,-0.0023081269950776463
2.9353772167117524,-0.0023206764986684037
2.9392846408175535,-0.0023336229226613033
2.9431920649233545,-0.0023466314036161354
2.9470994890291555,-0.002359358181519443
2.9510069131349566,-0.0023714505997845235
2.9549143372407576,-0.002382547105251428
2.9588217613465586,-0.0023922772481869614
2.9627291854523596,-0.0024002616822846826
2.9666366095581607,-0.0024061121646649047
2.9705440336639617,-0.0024094315558746944
2.9744514577697627,-0.0024098138198878722
2.9783588818755637,-0.002364193147753174
2.9822663059813648,-0.002215556262765457
2.986173730087166,-0.002125075795158793
2.990081154192967,-0.0022152126849689703
2.993988578298768,-0.0025510037636650093
2.997896002404569,-0.003140061754149163
3.00180342651037,-0.003932575270756916
3.005710850616171,-0.004821308819256985
3.009618274721972,-0.005641602796851332
3.013525698827773,-0.006152111266515975
3.017433122933574,-0.005402718729166171
3.021340547039375,-0.0021742812956299334
3.025247971145176,0.003709770206735433
3.029155395250977,0.011303789190437522
3.033062819356778,0.01851434330015441
3.036970243462579,0.022121744706548898
3.04087766756838,0.02015541581000329
3.044785091674181,0.013418064527523938
3.0486925157799822,0.005097812385435631
3.0525999398857833,-0.0020265792182418974
3.0565073639915843,-0.0064861882507381285
3.0604147880973853,-0.008060983981405765
3.0643222122031863,-0.007443654482725803
3.0682296363089874,-0.005823091225118326
3.0721370604147884,-0.0041808763607984155
3.0760444845205894,-0.003021019888566601
3.0799519086263905,-0.002378269270319665
3.0838593327321915,-0.002040183977259502
3.0877667568379925,-0.00184160953630038
3.0916741809437935,-0.0016680212119756157
3.0955816050495946,-0.0014541836341678306
3.0994890291553956,-0.0011841507981089569
3.1033964532611966,-0.000877955118351216
3.1073038773669976,-0.0005274054527002254
3.1112113014727987,-0.00012084607128366731
3.1151187255785997,0.00034207838621900816
3.1190261496844007,0.0008505128078468843
3.1229335737902018,0.0013830061048665356
3.126840997896003,0.00194317974478784
3.130748422001804,0.0025393416068356465
3.134655846107605,0.003166951832953001
3.138563270213406,0.0038201936705755304
3.142470694319207,0.004491973472631435
3.146378118425008,0.0051741180935718665
3.150285542530809,0.005862057607391979
3.15419296663661,0.006543526142922465
3.158100390742411,0.007203590605038565
3.162007814848212,0.007828664048576182
3.165915238954013,0.008406505678331877
3.169822663059814,0.008926220849062872
3.173730087165615,0.009378261065487052
3.177637511271416,0.009754423982282965
3.181544935377217,0.010047853404089813
3.185452359483018,0.010253039285507463
3.189359783588819,0.010365817731096447
3.1932672076946202,0.010383370995377946
3.1971746318004213,0.01030422748283382
3.2010820559062223,0.010128261747906573
3.2049894800120233,0.009855760363118228
3.2088969041178244,0.009482367910834146
3.2128043282236254,0.009019918610144948
3.2167117523294264,0.008483458937106473
3.2206191764352274,0.007887144540204791
3.2245266005410285,0.007244240240356214
3.2284340246468295,0.00656712003090729
3.2323414487526305,0.005867267077634797
3.2362488728584315,0.005155273718745757
3.2401562969642326,0.004440841464877421
3.2440637210700336,0.003732780999097282
3.2479711451758346,0.003039012176903065
3.2518785692816357,0.0023665640262227347
3.2557859933874367,0.0017215747474144862
3.2596934174932377,0.0011092917132667548
3.2636008415990387,0.0005340714689982123
3.2675082657048398,-6.202677422361552e-07
3.271415689810641,-0.0004922086068754449
3.275323113916442,-0.0009390094858920395
3.279230538022243,-0.001340229669852408
3.283137962128044,-0.001695890482131738
3.287045386233845,-0.0020062320061648405
3.290952810339646,-0.002274555739852578
3.294860234445447,-0.002504817791244706
3.298767658551248,-0.00270077537070913
3.302675082657049,-0.0028659867909319047
3.30658250676285,-0.0030038114669172335
3.310489930868651,-0.0031174099159874697
3.314397354974452,-0.0032097437577831133
3.318304779080253,-0.0032835757142628172
3.322212203186054,-0.0033414696097033804
3.326119627291855,-0.0033857903706997513
3.330027051397656,-0.0034187040261650283
3.3339344755034572,-0.00344217770733046
3.3378418996092574,-0.003457979647745438
3.3417493237150584,-0.003467679183277516
3.3456567478208594,-0.003472646752112383
3.3495641719266604,-0.003474053894753883
3.3534715960324615,-0.003472873254024009
3.3573790201382625,-0.003469878575062907
3.3612864442440635,-0.00346564470532886
3.3651938683498646,-0.003460547594598312
3.3691012924556656,-0.003454764294965851
3.3730087165614666,-0.0034482729608442176
3.3769161406672676,-0.003441144789814701
3.3808235647730687,-0.0034343062811388113
3.3847309888788697,-0.0034278962909446223
3.3886384129846707,-0.003421945487463679
3.3925458370904717,-0.003416471183412777
3.3964532611962728,-0.0034114773359939666
3.400360685302074,-0.0034069545468945485
3.404268109407875,-0.0034028800622870766
3.408175533513676,-0.0033992177728293565
3.412082957619477,-0.0033959182136644455
3.415990381725278,-0.0033929185644206547
3.419897805831079,-0.003390142649211546
3.42380522993688,-0.003387500936635935
3.427712654042681,-0.003384890539777887
3.431620078148482,-0.003382195216206723
3.435527502254283,-0.003379285367977013
3.439434926360084,-0.0033760180416285814
3.443342350465885,-0.0033722369281865036
3.447249774571686,-0.003367772363161108
3.451157198677487,-0.0033624413265479756
3.455064622783288,-0.003356047442827938
3.458972046889089,-0.0033483809809670803
3.4628794709948902,-0.0033392188544167398
3.4667868951006913,-0.0033283246211135054
3.4706943192064923,-0.0033154484834792193
3.4746017433122933,-0.0033003272884209746
3.4785091674180943,-0.00328267688164835
3.4824165915238954,-0.003261806220783748
3.4863240156296964,-0.0032378022030154093
3.4902314397354974,-0.003211203348401327
3.4941388638412985,-0.003182521696483037
3.4980462879470995,-0.003152242806285618
3.5019537120529005,-0.0031208257563176923
3.5058611361587015,-0.0030887031445714255
3.5097685602645026,-0.003056281088522525
3.5136759843703036,-0.0030239392251302424
3.5175834084761046,-0.002992030710837372
3.5214908325819057,-0.002960882221570251
3.5253982566877067,-0.0029307939527387604
3.5293056807935077,-0.0029020396192363236
3.5332131048993087,-0.002874866455439907
3.5371205290051098,-0.0028494952152100196
3.541027953110911,-0.0028261201718907157
3.544935377216712,-0.00280490911830959
3.548842801322513,-0.0027860033667777813
3.552750225428314,-0.0027695177490899723
3.556657649534115,-0.0027555406165243874
3.560565073639916,-0.0027441338398427953
3.564472497745717,-0.0027353328092905066
3.568379921851518,-0.0027291464345963754
3.572287345957319,-0.0027255571449728
3.57619477006312,-0.0027245208891157197
3.580102194168921,-0.0027259671352046185
3.584009618274722,-0.0027297988709025223
3.587917042380523,-0.0027358926033560016
3.591824466486324,-0.002744098359195168
3.595731890592125,-0.0027542396845336783
3.599639314697926,-0.0027657976456205683
3.6035467388037272,-0.0027779753443338997
3.6074541629095283,-0.0027902995525995416
3.6113615870153293,-0.002802325246652033
3.6152690111211303,-0.0028136341563619886
3.6191764352269313,-0.0028238347652360975
3.6230838593327324,-0.0028325623104171254
3.6269912834385334,-0.0028394787826839124
3.6308987075443344,-0.002844272926451373
3.6348061316501354,-0.0028469833301915095
3.6387135557559365,-0.002848979870746418
3.6426209798617375,-0.0028478623952383994
3.6465284039675385,-0.0028417722692227897
3.6504358280733396,-0.0028303333137181526
3.6543432521791406,-0.002814651805206275
3.6582506762849416,-0.0027973164756321697
3.6621581003907426,-0.002782398512404075
3.6660655244965437,-0.0027754515583934543
3.6699729486023447,-0.002783511711934996
3.6738803727081457,-0.002797428185356778
3.6777877968139467,-0.0028917685647829963
3.6816952209197478,-0.0031874449326820178
3.685602645025549,-0.003742626922184291
3.68951006913135,-0.004552020873799145
3.693417493237151,-0.0055468698354147975
3.697324917342952,-0.00659872038241013
3.701232341448753,-0.0074723775828430695
3.705139765554554,-0.007531798792278636
3.709047189660355,-0.006233793328042729
3.712954613766156,-0.0032553111228965713
3.716862037871957,0.0015065572749632904
3.720769461977758,0.007934580701904989
3.724676886083559,0.015711669563351297
3.72858431018936,0.023548258953692922
3.732491734295161,0.029257767484611695
3.736399158400962,0.03144273161702653
3.740306582506763,0.029600605526141716
3.744214006612564,0.024123761101446897
3.7481214307183652,0.016299200216116586
3.7520288548241663,0.007904924338261246
3.7559362789299673,0.00035757966876445377
3.7598437030357683,-0.005431643868879548
3.7637511271415693,-0.009056447876879183
3.7676585512473704,-0.010615422957482235
3.7715659753531714,-0.010484305550261858
3.7754733994589724,-0.009244399384251553
3.7793808235647735,-0.007544265167425917
3.7832882476705745,-0.00585550538677384
3.7871956717763755,-0.004472764308298491
3.7911030958821765,-0.003513727977017333
3.7950105199879776,-0.0029192175461319127
3.7989179440937786,-0.002535360028231658
3.8028253681995796,-0.0022810697522298007
3.8067327923053806,-0.0020934588238745062
3.8106402164111817,-0.0019236318429265249
3.8145476405169827,-0.001736685903159191
3.8184550646227837,-0.0015117105923584256
3.8223624887285848,-0.0012417879923227325
3.826269912834386,-0.0009339926788632029
3.830177336940187,-0.0005939085763887392
3.834084761045988,-0.00021282133729613913
3.837992185151789,0.00021082066314484786
3.84189960925759,0.0006774197666999503
3.845807033363391,0.0011862350940795596
3.849714457469192,0.0017353825449387332
3.853621881574993,0.0023218347978771897
3.857529305680794,0.0029414213104393136
3.861436729786595,0.0035888283191141527
3.865344153892396,0.004259224398883046
3.869251577998197,0.004949526417483111
3.873159002103998,0.005646139834428517
3.877066426209799,0.0063352406112252785
3.8809738503156,0.007003951924118032
3.884881274421401,0.007640344164090042
3.888788698527202,0.008233434936863198
3.8926961226330032,0.008773189062898014
3.8966035467388043,0.009250518577393634
3.9005109708446053,0.009657282730287821
3.9044183949504063,0.009986287986256974
3.9083258190562074,0.010231288024716106
3.9122332431620084,0.010386983739818867
3.9161406672678094,0.010449023240457522
3.9200480913736104,0.010414001850262972
3.9239555154794115,0.010279419796121543
3.9278629395852125,0.010035655401241302
3.9317703636910135,0.00968727173796845
3.9356777877968145,0.009249458638682628
3.9395852119026156,0.00873655124139235
3.9434926360084166,0.008162029989734995
3.9474000601142176,0.007538520632976825
3.9513074842200187,0.006877794226012967
3.9552149083258197,0.006190767129367419
3.9591223324316207,0.005487501009193062
3.9630297565374217,0.004777202837271636
3.9669371806432228,0.0040682248910137615
3.970844604749024,0.0033680647534589303
3.974752028854825,0.002683365313275509
3.978659452960626,0.00201991476476073
3.982566877066427,0.0013826466078407026
3.986474301172228,0.0007756396480704079
3.990381725278029,0.00020211799663370084
3.99428914938383,-0.0003355489296566899
3.998196573489631,-0.0008358464083591758
4.002103997595432,-0.0012981144114032738
4.006011421701232,-0.0017225476050895597
4.009918845807033,-0.002110195350089999
4.013826269912834,-0.00246296170144741
4.017733694018635,-0.002783591204272002
4.021641118124436,-0.0030711401636760722
4.025548542230237,-0.0033252509291000184
4.029455966336038,-0.0035487542099964142
4.033363390441839,-0.0037443465434438264
4.03727081454764,-0.003914590294146816
4.041178238653441,-0.004061913654435938
4.045085662759242,-0.004188610644267743
4.0489930868650434,-0.004296841111224773
4.0529005109708445,-0.0043886307305155674
4.0568079350766455,-0.004465871004974658
4.0607153591824465,-0.004530319265062568
4.0646227832882476,-0.004583598668865821
4.068530207394049,-0.0046271982020969285
4.07243763149985,-0.004662472678094401
4.076345055605651,-0.00469064273782274
4.080252479711452,-0.004712794849872443
4.084159903817253,-0.004729881310459999
4.088067327923054,-0.004742720243427895
4.091974752028855,-0.004751995600244608
4.095882176134656,-0.00475825716000461
4.099789600240457,-0.004761920529428373
4.103697024346258,-0.004763267142862356
4.107604448452059,-0.004762444262279014
4.11151187255786,-0.004759464977276797
4.115419296663661,-0.004754208205080152
4.119326720769462,-0.004746431964871211
4.123234144875263,-0.004736063662165146
4.127141568981064,-0.004723179635018444
4.131048993086865,-0.004707853872238163
4.134956417192666,-0.004690172055240478
4.138863841298467,-0.004670231558050684
4.142771265404268,-0.004648141447303192
4.146678689510069,-0.0046240224822415325
4.15058611361587,-0.004598007114718356
4.154493537721671,-0.004570239489195428
4.158400961827472,-0.004540875442743635
4.162308385933273,-0.004510082505042982
4.166215810039074,-0.00447803989838259
4.170123234144875,-0.0044449385376607005
4.174030658250676,-0.004410981030384673
4.177938082356477,-0.004376381676670984
4.181845506462278,-0.004341366469245232
4.185752930568079,-0.004306173093442129
4.18966035467388,-0.004271050927205509
4.1935677787796815,-0.004236261041088323
4.1974752028854825,-0.00420207619825264
4.2013826269912835,-0.004168780854469648
4.2052900510970845,-0.004136671158119653
4.209197475202886,-0.004106054950192082
4.213104899308687,-0.004077251764285476
4.217012323414488,-0.004050592826607496
4.220919747520289,-0.004026421055974923
4.22482717162609,-0.0040050910638136554
4.228734595731891,-0.003986969154158709
4.232642019837692,-0.00397243332365422
4.236549443943493,-0.00396187326155344
4.240456868049294,-0.003955663922113178
4.244364292155095,-0.003953496735341302
4.248271716260896,-0.0039546718489752355
4.252179140366697,-0.0039585262507847874
4.256086564472498,-0.003964435711379868
4.259993988578299,-0.003971814784210491
4.2639014126841,-0.003980116805566775
4.267808836789901,-0.00398883389457894
4.271716260895702,-0.003997496953217312
4.275623685001503,-0.0040056756662923175
4.279531109107304,-0.004012978501454488
4.283438533213105,-0.004019052709194459
4.287345957318906,-0.004023584322842967
4.291253381424707,-0.004026298158570855
4.295160805530508,-0.004026957815389067
4.299068229636309,-0.004025365675148653
4.30297565374211,-0.004021362902540762
4.306883077847911,-0.004014829445096652
4.310790501953712,-0.00400568403318768
4.314697926059513,-0.0039938841800253085
4.318605350165314,-0.003979426181661102
4.322512774271115,-0.003962345116986731
4.326420198376916,-0.003942714847733966
4.330327622482717,-0.003920648018474684
4.334235046588518,-0.0038962960566208634
4.3381424706943195,-0.003869849172424587
4.3420498948001205,-0.00384153635897804
4.3459573189059215,-0.0038116253922135124
4.3498647430117225,-0.0037804228309033967
4.353772167117524,-0.003748274016660189
4.357679591223325,-0.0037155630739364883
4.361587015329126,-0.0036827129100249984
4.365494439434927,-0.0036501852150585263
4.369401863540728,-0.003618480462009979
4.373309287646529,-0.003588137893526413
4.37721671175233,-0.0035592326737904274
4.381124135858131,-0.0035315784250301526
4.385031559963932,-0.0035053150868041647
4.388938984069733,-0.0034805533454689
4.392846408175534,-0.0034573746341786536
4.396753832281335,-0.0034358311328855817
4.400661256387136,-0.0034159457683396984
4.404568680492937,-0.003397712214088878
4.408476104598738,-0.003381094890478854
4.412383528704539,-0.0033660289646532215
4.41629095281034,-0.003352420350553432
4.420198376916141,-0.0033401457089187983
4.424105801021942,-0.0033290524472864933
4.428013225127743,-0.0033191650782050048
4.431920649233544,-0.0033118240234401484
4.435828073339345,-0.003305850337766893
4.439735497445146,-0.003299830529963996
4.443642921550947,-0.0032928185937017023
4.447550345656748,-0.003284336007541745
4.451457769762549,-0.003274371734937344
4.45536519386835,-0.0032633822242332067
4.459272617974151,-0.003252291408665529
4.463180042079952,-0.0032424907063619934
4.467087466185753,-0.0032358390203417707
4.470994890291554,-0.0032346627385155184
4.474902314397355,-0.003241755733685382
4.4788097385031564,-0.003260379363544995
4.4827171626089575,-0.003274795903388977
4.4866245867147585,-0.0033074934628494522
4.4905320108205595,-0.0034647502003537682
4.4944394349263606,-0.0038174283768472733
4.498346859032162,-0.004397162115908104
4.502254283137963,-0.005196357403747184
4.506161707243764,-0.006168192089208224
4.510069131349565,-0.007226615883767721
4.513976555455366,-0.008246665794841923
4.517883979561167,-0.009122024146961224
4.521791403666968,-0.009392862697414635
4.525698827772769,-0.008552082818572088
4.52960625187857,-0.006278266940148325
4.533513675984371,-0.0024356785492028986
4.537421100090172,0.0029257378098598175
4.541328524195973,0.009570356535290645
4.545235948301774,0.017076870967995615
4.549143372407575,0.02483334925419969
4.553050796513376,0.03172754599923828
4.556958220619177,0.03632846066594123
4.560865644724978,0.037740412074772155
4.564773068830779,0.03567499416230026
4.56868049293658,0.030451075981200323
4.572587917042381,0.022994801700252678
4.576495341148182,0.014628298001029117
4.580402765253983,0.006421877222669726
4.584310189359784,-0.000800045748830143
4.588217613465585,-0.0064928634249826304
4.592125037571386,-0.010392092342294757
4.596032461677187,-0.01251337306226839
4.599939885782988,-0.013116992978915196
4.603847309888789,-0.012512396642967084
4.60775473399459,-0.011144720518167327
4.611662158100391,-0.00943142268905221
4.615569582206192,-0.007738387727291391
4.619477006311993,-0.006379926691687921
4.6233844304177945,-0.005538392041920107
4.6272918545235955,-0.005048290247300041
4.6311992786293965,-0.004751739519267467
4.6351067027351975,-0.004535549982048453
4.639014126840999,-0.004327993480818411
4.6429215509468,-0.004098802782985031
4.646828975052601,-0.003841671468006255
4.650736399158402,-0.0035464228665633706
4.654643823264203,-0.003208591134134578
4.658551247370004,-0.002825070817727999
4.662458671475805,-0.0023941168558816806
4.666366095581606,-0.0019153445786635947
4.670273519687406,-0.0013897297076717616
4.674180943793207,-0.0008196083560337596
4.678088367899008,-0.00020867702840744523
4.681995792004809,0.00044098737724446705
4.68590321611061,0.0011287087995223803
4.689810640216411,0.0018374967111029214
4.693718064322212,0.002550151466447759
4.697625488428013,0.0032505989929529694
4.701532912533814,0.003923890790949043
4.705440336639615,0.00455620393370088
4.709347760745416,0.00513484106740779
4.713255184851217,0.005648230411203495
4.717162608957018,0.006085925757156126
4.721070033062819,0.006438606470268226
4.72497745716862,0.00669807748847675
4.728884881274421,0.006857269322653059
4.732792305380222,0.00691023805660293
4.736699729486023,0.006852165347066544
4.740607153591824,0.006679104366018938
4.744514577697625,0.006382838894931715
4.748422001803426,0.005975419114502022
4.7523294259092275,0.00547619077781288
4.7562368500150285,0.0049032909186679545
4.7601442741208295,0.004273647851591554
4.7640516982266305,0.00360298117182863
4.767959122332432,0.002905801755344779
4.771866546438233,0.00219541175882624
4.775773970544034,0.0014839046196798936
4.779681394649835,0.0007821650560332696
4.783588818755636,9.986906673453526e-05
4.787496242861437,-0.0005545160686474928
4.791403666967238,-0.0011737317898233603
4.795311091073039,-0.0017517282557829687
4.79921851517884,-0.0022836643447955666
4.803125939284641,-0.0027659076544097726
4.807033363390442,-0.0031960345014535527
4.810940787496243,-0.003572829922034228
4.814848211602044,-0.003896146787272944
4.818755635707845,-0.004167650610245568
4.822663059813646,-0.004392374433473347
4.826570483919447,-0.004575424827923193
4.830477908025248,-0.004721624468986275
4.834385332131049,-0.004835512136478014
4.83829275623685,-0.004921342714638087
4.842200180342651,-0.004983087192130427
4.846107604448452,-0.005024432662043221
4.850015028554253,-0.005048782321888911
4.853922452660054,-0.005059255473604196
4.857829876765855,-0.005058687523550026
4.861737300871656,-0.005049629982511611
4.865644724977457,-0.005034350465698412
4.869552149083258,-0.005014832692744146
4.873459573189059,-0.004992776487706785
4.87736699729486,-0.004969597779068562
4.881274421400661,-0.00494642859973595
4.885181845506462,-0.004924117087039694
4.889089269612263,-0.004903243562516384
4.8929966937180644,-0.004884955994197449
4.8969041178238655,-0.004869660235850492
4.9008115419296665,-0.00485716527353949
4.9047189660354675,-0.004847269893760014
4.908626390141269,-0.004839762683439239
4.91253381424707,-0.00483442202993594
4.916441238352871,-0.004831016121040488
4.920348662458672,-0.004829302944974857
4.924256086564473,-0.00482903029039262
4.928163510670274,-0.00482993574637895
4.932070934776075,-0.004831746702450619
4.935978358881876,-0.004834180348555999
4.939885782987677,-0.004836943675075063
4.943793207093478,-0.004839733472819382
4.947700631199279,-0.004842236333032129
4.95160805530508,-0.004844128647388075
4.955515479410881,-0.004845076607993591
4.959422903516682,-0.0048447362073866474
4.963330327622483,-0.004842753238536816
4.967237751728284,-0.004838763294845268
4.971145175834085,-0.004832391770144773
4.975052599939886,-0.004823253858699702
4.978960024045687,-0.0048109545552060245
4.982867448151488,-0.004795122452668722
4.986774872257289,-0.004775866880969039
4.99068229636309,-0.004753600918474187
4.994589720468891,-0.004728723591028743
4.998497144574692,-0.0047016160043611
5.002404568680493,-0.004672641344083451
5.006311992786294,-0.004642144875691801
5.010219416892095,-0.004610453944565962
5.014126840997896,-0.004577877975969552
5.018034265103697,-0.004544708475049997
5.021941689209498,-0.004511219026838532
5.025849113315299,-0.004477665296250197
5.0297565374211,-0.004444285028083841
5.033663961526901,-0.004411298047022122
5.0375713856327025,-0.004378906257631501
5.0414788097385035,-0.004347293644362252
5.0453862338443045,-0.004316626271548453
5.0492936579501055,-0.004287052283407989
5.053201082055907,-0.004258701904042556
5.057108506161708,-0.004231687437437654
5.061015930267509,-0.004206103267462593
5.06492335437331,-0.004182025857870489
5.068830778479111,-0.004159513752298265
5.072738202584912,-0.004138607574266652
5.076645626690713,-0.004119330027180192
5.080553050796514,-0.004101685894327229
5.084460474902315,-0.004085640176054476
5.088367899008116,-0.004070918218567941
5.092275323113917,-0.004057329588073858
5.096182747219718,-0.004044732963471238
5.100090171325519,-0.004032991123596824
5.10399759543132,-0.0040219709472250915
5.107905019537121,-0.004011543413068245
5.111812443642922,-0.004001583599776218
5.115719867748723,-0.0039919942854499514
5.119627291854524,-0.003982681056140132
5.123534715960325,-0.003973499671488622
5.127442140066126,-0.0039643665343557805
5.131349564171927,-0.003955262703034828
5.135256988277728,-0.003946233891251841
5.139164412383529,-0.003937390468165765
5.14307183648933,-0.0039289786971721625
5.146979260595131,-0.003925274603883545
5.150886684700932,-0.003921489373035365
5.154794108806733,-0.0039376618614370175
5.158701532912534,-0.004032738270023578
5.162608957018335,-0.004289590527005198
5.166516381124136,-0.00489304741053255
5.170423805229937,-0.005864864374971072
5.174331229335738,-0.0069345307752063795
5.178238653441539,-0.007740158506802995
5.1821460775473405,-0.007142245561809981
5.1860535016531415,-0.003996803128094957
5.1899609257589425,0.0018155054837464286
5.1938683498647435,0.009385251720347751
5.197775773970545,0.016774241785571808
5.201683198076346,0.0210429754583543
5.205590622182147,0.02009377552195725
5.209498046287948,0.014246402710703952
5.213405470393749,0.005874076054369411
5.21731289449955,-0.0017041800820542892
5.221220318605351,-0.006937394337243434
5.225127742711152,-0.009327101073992903
5.229035166816953,-0.009304968649235643
5.232942590922754,-0.007878713801908785
5.236850015028555,-0.006123003185130274
5.240757439134356,-0.004727102576192142
5.244664863240157,-0.003907445061113768
5.248572287345958,-0.0034648585964967807
5.252479711451759,-0.00320590212274308
5.25638713555756,-0.0030141138209697424
5.260294559663361,-0.0028105523574681133
5.264201983769162,-0.002555846416606229
5.268109407874963,-0.0022497616706887314
5.272016831980764,-0.0018963494635967264
5.275924256086565,-0.001486458731096563
5.279831680192366,-0.0010179847179737132
5.283739104298167,-0.0004916290090867781
5.287646528403968,8.910047063251207e-05
5.291553952509769,0.0007178894561792972
5.29546137661557,0.0013856173424755857
5.299368800721371,0.00208381776623785
5.303276224827172,0.0027988784538185056
5.307183648932973,0.00350532863044177
5.311091073038774,0.004179649228318471
5.314998497144575,0.0048006102268511285
5.318905921250376,0.005349270652633964
5.3228133453561775,0.005808978579452886
5.3267207694619785,0.0061653711282855005
5.3306281935677795,0.006406374467301115
5.3345356176735805,0.006522203811860718
5.338443041779382,0.006505363424517008
5.342350465885183,0.006348073854022704
5.346257889990984,0.006047599146317971
5.350165314096785,0.005626580712703277
5.354072738202586,0.005108378818074508
5.357980162308387,0.004514893770618165
5.361887586414188,0.0038665659218113805
5.365795010519989,0.003182375666421907
5.36970243462579,0.002479843442508123
5.373609858731591,0.0017750297314190252
5.377517282837392,0.0010825350577942407
5.381424706943193,0.0004154999895640138
5.385332131048994,-0.00021439486205078028
5.389239555154795,-0.0007969288425386471
5.393146979260596,-0.0013233412540974735
5.397054403366397,-0.0017863482849572183
5.400961827472198,-0.002183509090683873
5.404869251577999,-0.002520408685442392
5.4087766756838,-0.0028033251407172033
5.412684099789601,-0.0030382009147975775
5.416591523895402,-0.0032306428527776334
5.420498948001203,-0.003385922186556334
5.424406372107004,-0.0035089745348374905
5.428313796212805,-0.0036043999031297553
5.432221220318606,-0.0036764626837466298
5.436128644424407,-0.0037290916558064624
5.440036068530208,-0.003765879985232442
5.443943492636009,-0.0037900852247526105
5.44785091674181,-0.003804629313899848
5.451758340847611,-0.003812098579011884
5.455665764953412,-0.0038145284808139054
5.459573189059213,-0.003812560038508509
5.463480613165014,-0.0038064976664013497
5.4673880372708155,-0.0037966457376019283
5.4712954613766165,-0.0037833024298741208
5.4752028854824175,-0.0037667597256361785
5.4791103095882185,-0.0037473034119607277
5.48301773369402,-0.0037252130805747693
5.486925157799821,-0.0037007621278596797
5.490832581905622,-0.0036742177548512106
5.494740006011423,-0.003645840967239488
5.498647430117224,-0.003615886575369014
5.502554854223025,-0.0035846031942386655
5.506462278328826,-0.0035522332435016938
5.510369702434627,-0.0035190129474657254
5.514277126540428,-0.003485172335092763
5.518184550646229,-0.0034509316412006975
5.52209197475203,-0.0034165991557444006
5.525999398857831,-0.0033827076227147144
5.529906822963632,-0.0033497671467739016
5.533814247069433,-0.003318233990025992
5.537721671175234,-0.0032885105720167817
5.541629095281035,-0.0032609454697338338
5.545536519386836,-0.003235833417606477
5.549443943492637,-0.0032134153075058084
5.553351367598438,-0.0031938781887446894
5.557258791704239,-0.0031773552680777494
5.56116621581004,-0.0031639259097013847
5.565073639915841,-0.003153615635253757
5.568981064021642,-0.0031463961238147957
5.572888488127443,-0.0031421852119061957
5.576795912233244,-0.00314084689349142
5.580703336339045,-0.0031421913199756956
5.584610760444846,-0.0031459748002060192
5.588518184550647,-0.003151899800471152
5.592425608656448,-0.0031596149445016226
5.596333032762249,-0.0031687150134697257
5.60024045686805,-0.0031788426726146804
5.604147880973851,-0.0031896542958170927
5.608055305079652,-0.003200593761784354
5.6119627291854535,-0.003211148405954894
5.6158701532912545,-0.003220855452108777
5.6197775773970555,-0.0032293020123677057
5.6236850015028566,-0.003236125087195018
5.627592425608658,-0.0032410115653956884
5.631499849714459,-0.003243698224116328
5.63540727382026,-0.003243971728845183
5.639314697926061,-0.0032416686334121375
5.643222122031862,-0.0032366753799887116
5.647129546137663,-0.0032289282990880606
5.651036970243464,-0.003218413609564977
5.654944394349265,-0.0032051674186158903
5.658851818455066,-0.0031892757217788646
5.662759242560867,-0.0031708744029336025
5.666666666666668,-0.0031501788920423593
5.670574090772467,-0.0031465542824702657
5.674481514878268,-0.003145019009092432
5.678388938984069,-0.003118735285187013
5.68229636308987,-0.0030664200087432278
5.686203787195671,-0.003012344762461367
5.690111211301472,-0.003006335813752795
5.694018635407273,-0.0031237741147399464
5.697926059513074,-0.0034655953022563303
5.701833483618875,-0.004201837796922279
5.705740907724676,-0.005297291154818462
5.709648331830477,-0.006200889271109829
5.713555755936278,-0.006296939943114276
5.717463180042079,-0.0049289506880113645
5.7213706041478805,-0.001399115730572708
5.7252780282536815,0.004743674203699158
5.7291854523594825,0.012300726120457678
5.7330928764652835,0.019355392487405625
5.737000300571085,0.023707147377299606
5.740907724676886,0.022987749295195814
5.744815148782687,0.01734217687881654
5.748722572888488,0.009402129353682342
5.752629996994289,0.0014659241123013908
5.75653742110009,-0.004638900577310165
5.760444845205891,-0.008023830608059482
5.764352269311692,-0.008999745349922135
5.768259693417493,-0.008199509958411497
5.772167117523294,-0.0064968492930699145
5.776074541629095,-0.004858110800330993
5.779981965734896,-0.003646861493163394
5.783889389840697,-0.0029060320470458033
5.787796813946498,-0.0025353070915502475
5.791704238052299,-0.0023137627143854597
5.7956116621581,-0.00212479582767364
5.799519086263901,-0.0019295064641510636
5.803426510369702,-0.001700093850779089
5.807333934475503,-0.001422686264825525
5.811241358581304,-0.0010966125821415134
5.815148782687105,-0.000720169752157752
5.819056206792906,-0.0002895821144787721
5.822963630898707,0.0001958155166611518
5.826871055004508,0.0007342259820925644
5.830778479110309,0.0013213897777108318
5.83468590321611,0.0019505850544761377
5.838593327321911,0.0026126276184134864
5.842500751427712,0.003295870930612841
5.846408175533513,0.003991262887372287
5.850315599639314,0.00468167953851931
5.854223023745115,0.005343498903741428
5.858130447850916,0.00595573753683077
5.862037871956717,0.006500050525684079
5.8659452960625185,0.0069607314923027155
5.8698527201683195,0.007324712592792648
5.8737601442741205,0.007581564517364466
5.8776675683799215,0.0077234964903333675
5.881574992485723,0.007745356270119167
5.885482416591524,0.007644630149246291
5.889389840697325,0.007421282783082984
5.893297264803126,0.007070855760897236
5.897204688908927,0.006608353356704048
5.901112113014728,0.00605724672376498
5.905019537120529,0.005439266543102211
5.90892696122633,0.00477440302349854
5.912834385332131,0.004080905901497387
5.916741809437932,0.0033752844414027938
5.920649233543733,0.0026723074352794206
5.924556657649534,0.0019850032029525497
5.928464081755335,0.001324659592008083
5.932371505861136,0.0007008239777925454
5.936278929966937,0.00012130326341308357
5.940186354072738,-0.0004078361202625438
5.944093778178539,-0.0008822682146059488
5.94800120228434,-0.001299407533228123
5.951908626390141,-0.0016581507579816355
5.955816050495942,-0.0019597257553714276
5.959723474601743,-0.002210143914169725
5.963630898707544,-0.0024155184645218136
5.967538322813345,-0.0025815650043932792
5.971445746919146,-0.0027136014995700086
5.975353171024947,-0.002816548283658192
5.979260595130748,-0.0028949280580843175
5.983168019236549,-0.002952865892095178
5.98707544334235,-0.0029940892227578657
5.990982867448151,-0.003021927854959773
5.994890291553952,-0.003039313961408597
5.998797715659753,-0.0030487820826323336
6.002705139765554,-0.0030524691269792795
6.0066125638713554,-0.003052114370618034
6.0105199879771565,-0.0030490594575374973
6.0144274120829575,-0.0030442483995468694
6.0183348361887585,-0.0030382275762756584
6.02224226029456,-0.0030311457351736596
6.026149684400361,-0.003023025426834916
6.030057108506162,-0.0030147730918577195
6.033964532611963,-0.003006654682668096
6.037871956717764,-0.0029988144231566016
6.041779380823565,-0.0029913762757402887
6.045686804929366,-0.0029844439413627072
6.049594229035167,-0.0029781008594939045
6.053501653140968,-0.002972410208130425
6.057409077246769,-0.0029674149037953114
6.06131650135257,-0.0029631376015381017
6.065223925458371,-0.0029595806949348335
6.069131349564172,-0.0029567263160880392
6.073038773669973,-0.0029545363356267506
6.076946197775774,-0.002952952362706495
6.080853621881575,-0.0029518957450092986
6.084761045987376,-0.0029512675687436837
6.088668470093177,-0.0029509486586446706
6.092575894198978,-0.0029507995779737757
6.096483318304779,-0.002950660628519014
6.10039074241058,-0.0029503518505948974
6.104298166516381,-0.002949673023042434
6.108205590622182,-0.002948405753494173
6.112113014727983,-0.0029464440092724837
6.116020438833784,-0.002943568601129962
6.119927862939585,-0.002939489928888911
6.123835287045386,-0.0029339572304847824
6.127742711151187,-0.002926758581966177
6.131650135256988,-0.0029177208974948436
6.135557559362789,-0.002906709929345681
6.13946498346859,-0.0028936302679067366
6.143372407574391,-0.002878425341679206
6.147279831680192,-0.002861077417277435
6.1511872557859935,-0.0028416075994289166
6.1550946798917945,-0.002820075830974294
6.1590021039975955,-0.0027965808928673594
6.1629095281033965,-0.002771260404175053
6.166816952209198,-0.0027442908220774638
6.170724376314999,-0.0027158874418678307
6.1746318004208,-0.002686304396952541
6.178539224526601,-0.002655834658851131
6.182446648632402,-0.0026248100371962855
6.186354072738203,-0.002593601179733838
6.190261496844004,-0.0025626175723227726
6.194168920949805,-0.00253230753893522
6.198076345055606,-0.002503158241656461
6.201983769161407,-0.00247567940271525
6.205891193267208,-0.0024500921828086606
6.209798617373009,-0.002426657979183566
6.21370604147881,-0.002405674393917429
6.217613465584611,-0.002387386493323426
6.221520889690412,-0.0023719868079504435
6.225428313796213,-0.002359615332583079
6.229335737902014,-0.002350359526241641
6.233243162007815,-0.0023465231356415896
6.237150586113616,-0.002347475259575565
6.241058010219417,-0.002346800982080217
6.244965434325218,-0.002343398082651094
6.248872858431019,-0.002341734029753426
6.25278028253682,-0.0023518459808221292
6.256687706642621,-0.002389340782261802
6.260595130748422,-0.0024720940336228248
6.264502554854223,-0.0026534044521662006
6.268409978960024,-0.0031279582779565156
6.272317403065825,-0.00396020143906645
6.276224827171626,-0.005034151356037141
6.280132251277427,-0.006063085891507511
6.284039675383228,-0.006426107330999183
6.287947099489029,-0.005201247241901859
6.29185452359483,-0.0018341875591200226
6.2957619477006315,0.0038010165907910965
6.2996693718064325,0.011448811427764247
6.3035767959122335,0.019133931262980637
6.3074842200180345,0.023664701786797183
6.311391644123836,0.023406592331123556
6.315299068229637,0.018416382276773467
6.319206492335438,0.010513378305300188
6.323113916441239,0.0024101248182088284
6.32702134054704,-0.00405058706378084
6.330928764652841,-0.007909123422750484
6.334836188758642,-0.009081756014572395
6.338743612864443,-0.00834534099671777
6.342651036970244,-0.006733960823497278
6.346558461076045,-0.005001069955367778
6.350465885181846,-0.0036352543174498035
6.354373309287647,-0.002811992340902081
6.358280733393448,-0.0023936549629215353
6.362188157499249,-0.002100385366338181
6.36609558160505,-0.001879822235833465
6.370003005710851,-0.001677627964080689
6.373910429816652,-0.0014557731330469897
6.377817853922453,-0.001192998850310823
6.381725278028254,-0.0008848167490619651
6.385632702134055,-0.0005372471184631526
6.389540126239856,-0.00014436871731189366
6.393447550345657,0.00029637073956846876
6.397354974451458,0.0007853927232759901
6.401262398557259,0.001321351903010391
6.40516982266306,0.0019011361460730572
6.409077246768861,0.0025198665178670396
6.412984670874662,0.0031708972818970567
6.416892094980463,0.0038469980034217294
6.420799519086264,0.004543662913981533
6.424706943192065,0.0052432177828440445
6.428614367297866,0.0059270725331691185
6.432521791403667,0.006578212701896846
6.4364292155094684,0.0071811994397475475
6.4403366396152695,0.007722169511221779
6.4442440637210705,0.008188835294600325
6.4481514878268715,0.008570484781944207
6.452058911932673,0.00885798157909467
6.455966336038474,0.009043764905673202
6.459873760144275,0.00912184959508151
6.463781184250076,0.00908782609450155
6.467688608355877,0.008938860464895493
6.471596032461678,0.008665955687272835
6.475503456567479,0.008273571291280209
6.47941088067328,0.0077827083274078
6.483318304779081,0.007213016684319735
6.487225728884882,0.006582765298196583
6.491133152990683,0.005908842152735361
6.495040577096484,0.005206754279149528
6.498948001202285,0.004490627756168994
6.502855425308086,0.0037732077100401107
6.506762849413887,0.003065858314525675
6.510670273519688,0.0023785627909049326
6.514577697625489,0.0017199234079735767
6.51848512173129,0.0010971614820437375
6.522392545837091,0.0005161173769440003
6.526299969942892,-1.8749495980607475e-05
6.530207394048693,-0.0005043606778686108
6.534114818154494,-0.0009390186623420959
6.538022242260295,-0.001322406895506693
6.541929666366096,-0.0016555897759515988
6.545837090471897,-0.001940433827731549
6.549744514577698,-0.0021794369091324823
6.553651938683499,-0.0023775636368019216
6.5575593627893,-0.002539615356154261
6.561466786895101,-0.002670079774765304
6.565374211000902,-0.002773130962372268
6.569281635106703,-0.0028526293508737777
6.573189059212504,-0.0029121217343298696
6.577096483318305,-0.0029548412689619913
6.5810039074241065,-0.0029837074731530007
6.5849113315299075,-0.0030013262274471647
6.5888187556357085,-0.0030099897745501634
6.5927261797415095,-0.0030116767193290855
6.596633603847311,-0.0030080520288124314
6.600541027953112,-0.0030004670321901105
6.604448452058913,-0.002989959420813446
6.608355876164714,-0.002977253248195165
6.612263300270515,-0.002962758930009415
6.616170724376316,-0.002946681837279947
6.620078148482117,-0.002930032629653081
6.623985572587918,-0.002913185267967721
6.627892996693719,-0.0028962599502904787
6.63180042079952,-0.0028793679853433194
6.635707844905321,-0.002862611792503561
6.639615269011122,-0.002846084901803876
6.643522693116923,-0.0028298719539322876
6.647430117222724,-0.0028140487002321747
6.651337541328525,-0.0027986820027022683
6.655244965434326,-0.002783829833996653
6.659152389540127,-0.0027695412774247654
6.663059813645928,-0.0027558565269513967
6.666967237751729,-0.0027428068871966915
6.67087466185753,-0.0027304147734361463
6.674782085963331,-0.002718693711600612
6.678689510069132,-0.002707648338276292
6.682596934174933,-0.002697274400704743
6.686504358280734,-0.0026875587567828756
6.690411782386535,-0.0026784793750629526
6.694319206492336,-0.0026700053347525907
6.698226630598137,-0.0026620968257147597
6.702134054703938,-0.002654705148467782
6.706041478809739,-0.002647821397099542
6.70994890291554,-0.002641573116908539
6.713856327021341,-0.0026360076818192123
6.717763751127142,-0.0026311523000030292
6.721671175232943,-0.002627020340414853
6.7255785993387445,-0.0026236113327929404
6.7294860234445455,-0.0026209109676589436
6.7333934475503465,-0.002618891096317908
6.7373008716561475,-0.0026175097308582737
6.741208295761949,-0.0026167110441518747
6.74511571986775,-0.002616425369853941
6.749023143973551,-0.0026165692024030943
6.752930568079352,-0.0026170451970213525
6.756837992185153,-0.002617742169714128
6.760745416290954,-0.0026185350972702257
6.764652840396755,-0.0026192851172618463
6.768560264502556,-0.002619839528044585
6.772467688608357,-0.0026200317887574306
6.776375112714158,-0.0026196815193227662
6.780282536819959,-0.0026185945004463694
6.78418996092576,-0.0026165626736174125
6.788097385031561,-0.0026133641411084617
6.792004809137362,-0.0026087631659754778
6.795912233243163,-0.002602510172057815
6.799819657348964,-0.0025943417439782237
6.803727081454765,-0.0025839806271428464
6.807634505560566,-0.0025713032043708207
6.811541929666367,-0.002556475815111713
6.815449353772168,-0.0025394867263206678
6.819356777877969,-0.0025203634471151035
6.82326420198377,-0.00249918008701233
6.827171626089571,-0.0024760573559295495
6.831079050195372,-0.002451162564183859
6.834986474301173,-0.0024247096224922454
6.838893898406974,-0.002397013351599713
6.842801322512775,-0.0023697380890536144
6.846708746618576,-0.002341728321661557
6.850616170724377,-0.0023116251885103804
6.854523594830178,-0.0022794881856100383
6.858431018935979,-0.002246795165893599
6.86233844304178,-0.002216442339217244
6.8662458671475814,-0.00219274427236027
6.8701532912533825,-0.0021814338890250875
6.8740607153591835,-0.0021788543412830336
6.8779681394649845,-0.0022190559768512554
6.881875563570786,-0.002454535047047374
6.885782987676587,-0.0029721537016638684
6.889690411782388,-0.0037770690006676388
6.893597835888189,-0.004792732914200011
6.89750525999399,-0.005874732028750006
6.901412684099791,-0.006503892145348037
6.905320108205592,-0.005824892897903935
6.909227532311393,-0.003293028213440888
6.913134956417194,0.0012907897610375451
6.917042380522995,0.007780030658547428
6.920949804628796,0.015637792787345867
6.924857228734597,0.022798053949420652
6.928764652840398,0.02670961833955247
6.932672076946199,0.026113402726357093
6.936579501052,0.021098729436283627
6.940486925157801,0.013213378924452844
6.944394349263602,0.004882981408973572
6.948301773369403,-0.0021031887415418893
6.952209197475204,-0.006802601673241839
6.956116621581005,-0.009016291654621629
6.960024045686806,-0.009080207391209311
6.963931469792607,-0.007924712922969087
6.967838893898408,-0.00630753098923477
6.971746318004209,-0.004758605725618493
6.97565374211001,-0.0035801026640106806
6.979561166215811,-0.0028464087325801146
6.983468590321612,-0.002415247672079835
6.987376014427413,-0.002129699512168029
6.991283438533214,-0.0019212685662845599
6.995190862639015,-0.0017365307079905703
6.999098286744816,-0.0015350639605779064
7.003005710850616,-0.0012894484970692422
7.006913134956417,-0.0009852666402176099
7.010820559062218,-0.0006211028625070611
7.014727983168019,-0.00020854378615224774
7.01863540727382,0.00024603421838388005
7.022542831379621,0.0007505565373878408
7.026450255485422,0.001303490902008702
7.030357679591223,0.0019013931650657843
7.034265103697024,0.00253890740279306
7.038172527802825,0.0032087659148391555
7.042079951908626,0.003901789224267347
7.045987376014427,0.004606886077555565
7.049894800120228,0.005311053444596391
7.053802224226029,0.006001468830977349
7.05770964833183,0.00666685737602066
7.061617072437631,0.007287052579974106
7.065524496543432,0.007843777400000265
7.069431920649233,0.00832153893670379
7.073339344755034,0.008707628434131406
7.077246768860835,0.008992121279771908
7.081154192966636,0.009167877004556162
7.085061617072437,0.009230539282857112
7.088969041178238,0.00917853593248977
7.092876465284039,0.009013078914711216
7.09678388938984,0.008738164334220607
7.100691313495641,0.008360572439159174
7.104598737601442,0.007888778892843689
7.108506161707243,0.007329572322712408
7.112413585813044,0.006701395220914539
7.116321009918845,0.006023267783204475
7.1202284340246464,0.0053125995153943655
7.1241358581304475,0.004585189233354112
7.1280432822362485,0.003855225063011374
7.1319507063420495,0.0031352844403515637
7.1358581304478506,0.002436334111417849
7.139765554553652,0.0017677301323111502
7.143672978659453,0.0011372178691901472
7.147580402765254,0.0005509319982712688
7.151487826871055,1.3396505828702429e-05
7.155395250976856,-0.00047247531180561256
7.159302675082657,-0.0009053808482419792
7.163210099188458,-0.0012847696885192775
7.167117523294259,-0.0016125653721268613
7.17102494740006,-0.0018934433871523513
7.174932371505861,-0.0021320421493029222
7.178839795611662,-0.0023329380120527487
7.182747219717463,-0.0025006452666430077
7.186654643823264,-0.002639616142081875
7.190562067929065,-0.0027542408051445286
7.194469492034866,-0.0028488473603731444
7.198376916140667,-0.002927701850076901
7.202284340246468,-0.0029946087682962007
7.206191764352269,-0.003049323081130662
7.21009918845807,-0.0030927201125269207
7.214006612563871,-0.0031262494761762055
7.217914036669672,-0.0031512314842121075
7.221821460775473,-0.003168857147210578
7.225728884881274,-0.0031801881741899325
7.229636308987075,-0.003186156972610845
7.233543733092876,-0.0031875666483763537
7.237451157198677,-0.003185091005831857
7.241358581304478,-0.003179274547765115
7.245266005410279,-0.003170715170168659
7.24917342951608,-0.003159965095906153
7.253080853621881,-0.0031473183693041047
7.256988277727682,-0.003133052613806404
7.260895701833483,-0.003117429836527723
7.2648031259392845,-0.00310069642825352
7.2687105500450855,-0.003083083163440035
7.2726179741508865,-0.003064805200214293
7.2765253982566875,-0.0030460620803741028
7.280432822362489,-0.0030270377293880567
7.28434024646829,-0.003007900456395531
7.288247670574091,-0.0029888029542066864
7.292155094679892,-0.0029698822993024666
7.296062518785693,-0.0029512599518345993
7.299969942891494,-0.0029330417556255963
7.303877366997295,-0.0029153179381687534
7.307784791103096,-0.00289816311062815
7.311692215208897,-0.002881636267838649
7.315599639314698,-0.002865780788305899
7.319507063420499,-0.0028506244342063293
7.3234144875263,-0.002836179351387156
7.327321911632101,-0.002822442069366377
7.331229335737902,-0.002809393501332775
7.335136759843703,-0.002796998944145917
7.339044183949504,-0.0027852080783361535
7.342951608055305,-0.0027739549681046177
7.346859032161106,-0.0027631580613232285
7.350766456266907,-0.002752719334464276
7.354673880372708,-0.002742624790733146
7.358581304478509,-0.0027329653721009516
7.36248872858431,-0.0027238243001032653
7.366396152690111,-0.0027152725463648717
7.370303576795912,-0.002707368832599766
7.374211000901713,-0.0027001596306111555
7.378118425007514,-0.0026936791622914577
7.382025849113315,-0.0026879493996223025
7.385933273219116,-0.0026829800646745302
7.389840697324917,-0.002678768629608194
7.393748121430718,-0.0026753003166725565
7.397655545536519,-0.002672548098206093
7.40156296964232,-0.002670472696636489
7.405470393748121,-0.0026690225844806428
7.4093778178539225,-0.0026681339843446627
7.4132852419597235,-0.0026677308689238687
7.4171926660655245,-0.0026677249610027928
7.4211000901713255,-0.002668015733455177
7.425007514277127,-0.002668490409243976
7.428914938382928,-0.002669023961421355
7.432822362488729,-0.0026694791131286907
7.43672978659453,-0.002669706337596571
7.440637210700331,-0.0026695438581447956
7.444544634806132,-0.0026688176481823754
7.448452058911933,-0.002667341431207532
7.452359483017734,-0.0026649166808076995
7.456266907123535,-0.002661332620659522
7.460174331229336,-0.0026563662245288554
7.464081755335137,-0.002649782216270767
7.467989179440938,-0.0026413330698295367
7.471896603546739,-0.002630759009238653
7.47580402765254,-0.0026177880086208183
7.479711451758341,-0.0026021465550751083
7.483618875864142,-0.002584046701646567
7.487526299969943,-0.002563785296474462
7.491433724075744,-0.0025415211446894663
7.495341148181545,-0.0025174370341973402
7.499248572287346,-0.002491739735678931
7.503155996393147,-0.0024646600025901733
7.507063420498948,-0.002436452571162088
7.510970844604749,-0.0024073961604007834
7.51487826871055,-0.002377793472087454
7.518785692816351,-0.0023479711907783835
7.522693116922152,-0.0023182799838049393
7.526600541027953,-0.002289094501273579
7.530507965133754,-0.0022608133760658447
7.534415389239555,-0.0022338592238383666
7.538322813345356,-0.0022086786430228623
7.542230237451157,-0.0021859084025267705
7.546137661556958,-0.00216616287463966
7.5500450856627594,-0.002149243411029081
7.5539525097685605,-0.002134964959545099
7.5578599338743615,-0.0021232013927992913
7.5617673579801625,-0.0021138855081647484
7.565674782085964,-0.002107009027776072
7.569582206191765,-0.0021026225985293773
7.573489630297566,-0.0021008357920822905
7.577397054403367,-0.0021018171048539504
7.581304478509168,-0.002105793958025008
7.585211902614969,-0.002113052697537627
7.58911932672077,-0.0021239385940954826
7.593026750826571,-0.002138855843163762
7.596934174932372,-0.0021582675649691667
7.600841599038173,-0.0021786601010087294
7.604749023143974,-0.0021130724433163117
7.608656447249775,-0.0020496435657626545
7.612563871355576,-0.0021187269005685156
7.616471295461377,-0.0024054516116965696
7.620378719567178,-0.0029497225948514052
7.624286143672979,-0.003746220477479527
7.62819356777878,-0.004744401618769352
7.632100991884581,-0.005848498109651221
7.636008415990382,-0.006917517772797377
7.639915840096183,-0.007765244162621986
7.643823264201984,-0.00816915260983963
7.647730688307785,-0.007826626923761529
7.651638112413586,-0.0061918506020626155
7.655545536519387,-0.0029206588025014243
7.659452960625188,0.0020574993958256092
7.663360384730989,0.008539560992484142
7.66726780883679,0.016048849065701917
7.671175232942591,0.023835165991121586
7.675082657048392,0.030816429591040584
7.678990081154193,0.03551405305798041
7.682897505259994,0.036912556153664046
7.686804929365795,0.03469225909656578
7.690712353471596,0.029229282561911207
7.6946197775773975,0.021593980401498944
7.6985272016831985,0.013194686928823132
7.7024346257889995,0.005151740156718751
7.7063420498948005,-0.001699848736087528
7.710249474000602,-0.006849943162385529
7.714156898106403,-0.01011328112648159
7.718064322212204,-0.011623965336567363
7.721971746318005,-0.01161836698444008
7.725879170423806,-0.010571640440359414
7.729786594529607,-0.00898451087043517
7.733694018635408,-0.00724737334934172
7.737601442741209,-0.005640292860318004
7.74150886684701,-0.004333004295167533
7.745416290952811,-0.003384912454258376
7.749323715058612,-0.0027437748229074887
7.753231139164413,-0.002295613488190813
7.757138563270214,-0.0019810228650708078
7.761045987376015,-0.0017546247128186973
7.764953411481816,-0.001577568088404163
7.768860835587617,-0.0014175293464953487
7.772768259693418,-0.001248712139458855
7.776675683799219,-0.001051847417359744
7.78058310790502,-0.0008141934279615355
7.784490532010821,-0.0005295357167262107
7.788397956116622,-0.00019818712681420915
7.792305380222423,0.00017301220091557297
7.796212804328224,0.0005710257385477468
7.800120228434025,0.0009982947634228812
7.804027652539826,0.0014620278425553062
7.807935076645627,0.00196186545551062
7.811842500751428,0.0024966401693300826
7.815749924857229,0.0030643766385306157
7.81965734896303,0.0036622916051048063
7.823564773068831,0.0042867938985209
7.827472197174632,0.004933484435722807
7.831379621280433,0.005597156221130102
7.835287045386234,0.0062717943466380184
7.8391944694920355,0.006950575991617455
7.8431018935978365,0.007626393680631167
7.8470093177036375,0.008295976555024337
7.8509167418094385,0.008949093038197287
7.85482416591524,0.009574340118762464
7.858731590021041,0.010161381160815029
7.862639014126842,0.010700945903932866
7.866546438232643,0.011184830463176582
7.870453862338444,0.011605897329089494
7.874361286444245,0.011958075367697645
7.878268710550046,0.012236359820509793
7.882176134655847,0.01243681230451742
7.886083558761648,0.012556560812194717
7.889990982867449,0.012593799711498608
7.89389840697325,0.012547789745868721
7.897805831079051,0.012418858034227417
7.901713255184852,0.012208398070979763
7.905620679290653,0.01191886972601356
7.909528103396454,0.01155379924469931
7.913435527502255,0.011115951430837365
7.917342951608056,0.010607385438923186
7.921250375713857,0.010038947206530263
7.925157799819658,0.009421499306672576
7.929065223925459,0.008765275415262052
7.93297264803126,0.008079880311108557
7.936880072137061,0.007374289875919907
7.940787496242862,0.006656851094301858
7.944694920348663,0.005935282053758112
7.948602344454464,0.005216671944690314
7.952509768560265,0.004507481060398054
7.956417192666066,0.0038135407970788654
7.960324616771867,0.0031400536538282314
7.964232040877668,0.002491593232639566
7.968139464983469,0.0018721042384042402
7.97204688908927,0.0012849024789115641
7.975954313195071,0.0007326748648487907
7.9798617373008724,0.00021747940980112491
7.9837691614066735,-0.0002592547697482985
7.9876765855124745,-0.0006967274544183895
7.9915840096182755,-0.0010946905070458143
7.995491433724077,-0.0014515780353392548
7.999398857829878,-0.0017690384581811232
8.003306281935679,-0.002050158804150816
8.00721370604148,-0.002297897727753779
8.01112113014728,-0.002515085509421505
8.015028554253082,-0.0027044240555115376
8.018935978358883,-0.0028684868983074674
8.022843402464684,-0.0030097191960189347
8.026750826570485,-0.0031304377327816277
8.030658250676286,-0.003232830918657285
8.034565674782087,-0.003318958789633691
8.038473098887888,-0.0033907530076246837
8.042380522993689,-0.003450016860470143
8.04628794709949,-0.0034984252619360027
8.050195371205291,-0.0035375247517142466
8.054102795311092,-0.0035687334954228995
8.058010219416893,-0.003593341284606043
8.061917643522694,-0.0036125095367338057
8.065825067628495,-0.0036272712952023583
8.069732491734296,-0.003638531229333931
8.073639915840097,-0.0036470656343767943
8.077547339945898,-0.003653522431505271
8.0814547640517,-0.003658421167819731
8.0853621881575,-0.003662153016346594
8.089269612263301,-0.0036649807760383325
8.093177036369102,-0.00366703887177346
8.097084460474903,-0.003668333354356541
8.100991884580704,-0.0036687419005181883
8.104899308686505,-0.003668013812915076
8.108806732792306,-0.0036657700201298995
8.112714156898107,-0.003661799711624418
8.116621581003908,-0.003656320997599771
8.12052900510971,-0.003649219004576387
8.12443642921551,-0.003640391070004561
8.128343853321311,-0.003629757065292557
8.132251277427113,-0.0036172593958066065
8.136158701532914,-0.00360286300087091
8.140066125638715,-0.0035865553537676362
8.143973549744516,-0.0035683464617369226
8.147880973850317,-0.0035482688659768747
8.151788397956118,-0.003526377641643566
8.155695822061919,-0.003502750397851041
8.15960324616772,-0.0034774872776713087
8.16351067027352,-0.00345071095813435
8.167418094379322,-0.0034225666502281124
8.171325518485123,-0.003393222098898512
8.175232942590924,-0.003362867583049434
8.179140366696725,-0.003331715915542732
8.183047790802526,-0.003300002443198228
8.186955214908327,-0.0032679850467937114
8.190862639014128,-0.0032359441410649416
8.194770063119929,-0.0032041826747056454
8.19867748722573,-0.0031730261303675187
8.202584911331531,-0.0031428225246602254
8.206492335437332,-0.003113942408151398
8.210399759543133,-0.0030867788653666374
8.214307183648934,-0.0030617475147895136
8.218214607754735,-0.0030392865088615635
8.222122031860536,-0.0030198565339822946
8.226029455966337,-0.003003940810509181
8.229936880072138,-0.002992045092757666
8.23384430417794,-0.0029848122424847995
8.23775172828374,-0.0029820658155432778
8.241659152389541,-0.0029831204572700904
8.245566576495342,-0.0029873261697767935
8.249474000601143,-0.002994068314588508
8.253381424706944,-0.003002767612643921
8.257288848812745,-0.003012880144295287
8.261196272918546,-0.003023897349308425
8.265103697024347,-0.00303534602686272
8.269011121130148,-0.0030467883355511246
8.27291854523595,-0.003057821793380156
8.27682596934175,-0.0030680792777698983
8.280733393447552,-0.0030772290255540015
8.284640817553353,-0.003084974632979682
8.288548241659154,-0.003091055055707721
8.292455665764955,-0.0030952446088124666
8.296363089870756,-0.003097352966781834
8.300270513976557,-0.003097225163517303
8.304177938082358,-0.0030947415923339196
8.308085362188159,-0.0030898180059602963
8.31199278629396,-0.003082405516538612
8.31590021039976,-0.0030724905956246106
8.319807634505562,-0.0030600950741876036
8.323715058611363,-0.003045276142610467
8.327622482717164,-0.0030281263506896443
8.331529906822965,-0.0030087736076351438
8.335437330928766,-0.00298738118207054
8.339344755034565,-0.0029641477020329854
8.343252179140366,-0.002939307154973166
8.347159603246167,-0.002913128887755364
8.351067027351968,-0.0028859176066574205
8.35497445145777,-0.002858013377370739
8.35888187556357,-0.0028297916250002914
8.362789299669371,-0.002801673141315816
8.366696723775172,-0.0027745078227233676
8.370604147880973,-0.002748617079957966
8.374511571986774,-0.002723977586842923
8.378418996092575,-0.0027005666293965697
8.382326420198376,-0.0026783621058322532
8.386233844304178,-0.0026573425265583395
8.390141268409979,-0.002637487014178211
8.39404869251578,-0.002618775303490269
8.39795611662158,-0.002601187741487932
8.401863540727382,-0.0025847052873596353
8.405770964833183,-0.0025693095124888323
8.409678388938984,-0.0025549826004539946
8.413585813044785,-0.002541707347028611
8.417493237150586,-0.0025294671601811874
8.421400661256387,-0.0025182460600752478
8.425308085362188,-0.0025080286790693344
8.429215509467989,-0.0024988002617170055
8.43312293357379,-0.0024905466647668385
8.43703035767959,-0.0024832543571624275
8.440937781785392,-0.0024769104200423847
8.444845205891193,-0.0024715025467403396
8.448752629996994,-0.0024670190427849396
8.452660054102795,-0.0024634488258998494
8.456567478208596,-0.002460781426003752
8.460474902314397,-0.002459006985210346
8.464382326420198,-0.002458116257828351
8.468289750525999,-0.0024581006103615013
8.4721971746318,-0.0024589520215085496
8.476104598737601,-0.002451501258338631
8.480012022843402,-0.002427085842627719
8.483919446949203,-0.0024279034358165247
8.487826871055004,-0.002493173005412583
8.491734295160805,-0.0026554698704185985
8.495641719266606,-0.0029407257013324426
8.499549143372407,-0.0033682285201471567
8.503456567478208,-0.003950622700350949
8.50736399158401,-0.004693908966927196
8.51127141568981,-0.005597444396354445
8.515178839795611,-0.006655263486446558
8.519086263901412,-0.007845182138856842
8.522993688007213,-0.008809469341013051
8.526901112113014,-0.00914962277341609
8.530808536218816,-0.008555101965148849
8.534715960324617,-0.006803328293876213
8.538623384430418,-0.003759684985845073
8.542530808536219,0.0006224828841157066
8.54643823264202,0.006301868392595248
8.55034565674782,0.013149202767600683
8.554253080853622,0.02094114164214063
8.558160504959423,0.028841559050473774
8.562067929065224,0.03549698898754563
8.565975353171025,0.03989591093617211
8.569882777276826,0.041416074307744924
8.573790201382627,0.039824498442231515
8.577697625488428,0.03527747260817511
8.581605049594229,0.02834963301680507
8.58551247370003,0.020130759146067736
8.589419897805831,0.011702415663471345
8.593327321911632,0.003899758741910588
8.597234746017433,-0.002689745718823154
8.601142170123234,-0.0077263220920418055
8.605049594229035,-0.011115822701488507
8.608957018334836,-0.012791064789035588
8.612864442440637,-0.013032588618147134
8.616771866546438,-0.012287712152412512
8.62067929065224,-0.01093788443613079
8.62458671475804,-0.009298685594310727
8.628494138863841,-0.007619826832670783
8.632401562969642,-0.006085150437639112
8.636308987075443,-0.004812629776353567
8.640216411181244,-0.0038543692966617055
8.644123835287045,-0.003196604527120798
8.648031259392846,-0.0027597020769977287
8.651938683498647,-0.002428530719883836
8.655846107604448,-0.0021691490799865517
8.65975353171025,-0.001955677959165622
8.66366095581605,-0.0017649176357111582
8.667568379921851,-0.001577636005087349
8.671475804027653,-0.0013785685799324633
8.675383228133454,-0.0011564184900588496
8.679290652239255,-0.0009038564824529346
8.683198076345056,-0.0006175209212752274
8.687105500450857,-0.00029801778786031326
8.691012924556658,5.007931928314264e-05
8.694920348662459,0.00042386009778648315
8.69882777276826,0.0008286672416678876
8.70273519687406,0.001265235653187449
8.706642620979862,0.0017336520470118558
8.710550045085663,0.0022334523234176745
8.714457469191464,0.002763621568291349
8.718364893297265,0.003322594053129201
8.722272317403066,0.003908253235037429
8.726179741508867,0.004517931756732112
8.730087165614668,0.005148411446539204
8.733994589720469,0.005795923318394538
8.73790201382627,0.006456147571843824
8.741809437932071,0.007124395733253824
8.745716862037872,0.007799837815136451
8.749624286143673,0.008475964794391477
8.753531710249474,0.009143750770215184
8.757439134355275,0.00979476451849766
8.761346558461076,0.01042116949182279
8.765253982566877,0.011015723819468262
8.769161406672678,0.011571780307405563
8.77306883077848,0.012083286438299989
8.77697625488428,0.012544784371510624
8.780883678990081,0.01295141094309037
8.784791103095882,0.013298897665785916
8.788698527201683,0.01358357072903776
8.792605951307484,0.013802350998980202
8.796513375413285,0.013952754018441338
8.800420799519086,0.01403289000694307
8.804328223624887,0.014041463860701098
8.808235647730688,0.013977775152624928
8.81214307183649,0.013841718132317857
8.81605049594229,0.013633781726077003
8.819957920048092,0.013354923924164326
8.823865344153893,0.013001604922978492
8.827772768259694,0.012578137479282188
8.831680192365495,0.01209324722372812
8.835587616471296,0.011555273345123376
8.839495040577097,0.010972168590429425
8.843402464682898,0.010351499264762126
8.847309888788699,0.009700445231391712
8.8512173128945,0.009025799911742807
8.8551247370003,0.008333970285394416
8.859032161106102,0.007630976890079922
8.862939585211903,0.0069224538216871
8.866847009317704,0.006213648734258101
8.870754433423505,0.005509422839989462
8.874661857529306,0.004814250909232105
8.878569281635107,0.004132221270491333
8.882476705740908,0.003467035810426832
8.886384129846709,0.0028220099738526655
8.89029155395251,0.002200072763737298
8.894198978058311,0.0016037667412035564
8.898106402164112,0.0010352480255286615
8.902013826269913,0.0004962862941442145
8.905921250375714,-1.1735217363790726e-05
8.909828674481515,-0.00048781971525499457
8.913736098587316,-0.0009313568476346425
8.917643522693117,-0.0013421227044536008
8.921550946798918,-0.0017202427300244524
8.92545837090472,-0.0020653498840079105
8.92936579501052,-0.002378557525532599
8.933273219116321,-0.0026616154158508815
8.937180643222122,-0.0029162292525027255
8.941088067327923,-0.003144060669315704
8.944995491433724,-0.003346727236404992
8.948902915539525,-0.0035258024601733714
8.952810339645326,-0.003682815783311225
8.956717763751127,-0.0038192525847965436
8.960625187856929,-0.00393655417989492
8.96453261196273,-0.004036117820159552
8.96844003606853,-0.004119296693431241
8.972347460174332,-0.004187399923838394
8.976254884280133,-0.0042416925717970195
8.980162308385934,-0.0042833956340107325
8.984069732491735,-0.004313686043470752
8.987977156597536,-0.004333696669455904
8.991884580703337,-0.004344516317532608
8.995792004809138,-0.004347189729554905
8.999699428914939,-0.004342717583664424
9.00360685302074,-0.004332056494290406
9.00751427712654,-0.0043161190121497
9.011421701232342,-0.004295773624246747
9.015329125338143,-0.004271844753873606
9.019236549443944,-0.004245112760609928
9.023143973549745,-0.00421631394032298
9.027051397655546,-0.004186140525167626
9.030958821761347,-0.004155240683586336
9.034866245867148,-0.004124218520309183
9.038773669972949,-0.00409363407635384
9.04268109407875,-0.004064032303724415
9.046588518184551,-0.004035909802510599
9.050495942290352,-0.004009287086694924
9.054403366396153,-0.0039841204469233055
9.058310790501954,-0.003960364487776691
9.062218214607755,-0.003937972127771061
9.066125638713556,-0.0039168945993574315
9.070033062819357,-0.0038970814489218512
9.073940486925158,-0.003878480536785403
9.07784791103096,-0.003861038037204203
9.08175533513676,-0.0038446984383694017
9.085662759242561,-0.0038294045424071823
9.089570183348362,-0.003815097465378763
9.093477607454163,-0.003801716637280395
9.097385031559964,-0.0037891998020433623
9.101292455665766,-0.0037774830175339846
9.105199879771567,-0.0037665006555536143
9.109107303877368,-0.003756185401838637
9.113014727983169,-0.003746468256060473
9.11692215208897,-0.003737278531825576
9.12082957619477,-0.003728543856675433
9.124737000300572,-0.0037201901720865646
9.128644424406373,-0.003712141733470526
9.132551848512174,-0.003704321110173906
9.136459272617975,-0.0036966491854783265
9.140366696723776,-0.0036890451566004433
9.144274120829577,-0.003681426534691946
9.148181544935378,-0.0036737091448395577
9.152088969041179,-0.0036658071260650365
9.15599639314698,-0.0036576680591081973
9.159903817252781,-0.0036497334888484305
9.163811241358582,-0.0036420648562279423
9.167718665464383,-0.003634543001571537
9.171626089570184,-0.0036270564494866836
9.175533513675985,-0.003619501408863517
9.179440937781786,-0.0036117817728748363
9.183348361887587,-0.0036038091189761062
9.187255785993388,-0.0035955027089054565
9.19116321009919,-0.003586789488683683
9.19507063420499,-0.0035776040886142443
9.198978058310791,-0.003567888823283267
9.202885482416592,-0.0035575936915595414
9.206792906522393,-0.0035466763765945224
9.210700330628194,-0.0035351022458223313
9.214607754733995,-0.0035228443509597537
9.218515178839796,-0.003509883428006241
9.222422602945597,-0.0034962078972439084
9.226330027051398,-0.003481813863237538
9.2302374511572,-0.0034667051148345764
9.234144875263,-0.0034508931251651343
9.238052299368801,-0.0034343970516419894
9.241959723474602,-0.0034172437359605828
9.245867147580404,-0.003399467704099022
9.249774571686205,-0.003381111166318079
9.253681995792006,-0.003362224017161191
9.257589419897807,-0.0033428638354544606
9.261496844003608,-0.0033230958843066555
9.265404268109409,-0.0033029931111092084
9.26931169221521,-0.003282636147536217
9.27321911632101,-0.0032621133095444444
9.277126540426812,-0.0032415205973733187
9.281033964532613,-0.0032209616955449333
9.284941388638414,-0.003200547972864047
9.288848812744215,-0.0031803984824180826
9.292756236850016,-0.00316063996157713
9.296663660955817,-0.0031414051883548177
9.300571085061618,-0.0031227085062960646
9.304478509167419,-0.003104538915576013
9.30838593327322,-0.0030869293882238
9.312293357379021,-0.003069906417617175
9.316200781484822,-0.003053490018482501
9.320108205590623,-0.0030376937268947538
9.324015629696424,-0.003022524600277521
9.327923053802225,-0.0030079832174030032
9.331830477908026,-0.002994063678392015
9.335737902013827,-0.002980753604713982
9.339645326119628,-0.0029680341391869433
9.34355275022543,-0.002956038051123513
9.34746017433123,-0.0029453726072519617
9.351367598437031,-0.0029353077064408666
9.355275022542832,-0.0029252010771573553
9.359182446648633,-0.0029147467500231826
9.363089870754434,-0.002903975057814733
9.366997294860235,-0.002893252635463017
9.370904718966036,-0.002883282420053673
9.374812143071837,-0.002875103650826967
9.378719567177638,-0.0028700918691777926
9.38262699128344,-0.0028699589186556716
9.38653441538924,-0.002876752944964753
9.390441839495042,-0.002862332135440904
9.394349263600843,-0.002838886295994544
9.398256687706644,-0.0029115128161148894
9.402164111812445,-0.0031545611991350368
9.406071535918246,-0.0036092281259554335
9.409978960024047,-0.0042835574550438744
9.413886384129848,-0.005152440222435506
9.417793808235649,-0.006157614641732825
9.42170123234145,-0.007207666104105672
9.42560865644725,-0.008183729805588702
9.429516080553052,-0.009028187229671383
9.433423504658853,-0.009178223681352706
9.437330928764654,-0.008068295089969011
9.441238352870455,-0.0053655312617512324
9.445145776976256,-0.000969735879824892
9.449053201082057,0.004986613495789891
9.452960625187858,0.012138365428178404
9.456868049293659,0.019887694603531354
9.46077547339946,0.027404101831144844
9.464682897505261,0.03359247258220708
9.468590321611062,0.03718623187267951
9.472497745716863,0.03753676752582698
9.476405169822664,0.03454144451104259
9.480312593928465,0.02861066937608047
9.484220018034266,0.020667890247055815
9.488127442140067,0.012137113964323435
9.492034866245868,0.004236778016718455
9.49594229035167,-0.002444552156824275
9.49984971445747,-0.007512871127142107
9.503757138563271,-0.010798492857698478
9.507664562669072,-0.012356050704582889
9.511571986774873,-0.0124644974154314
9.515479410880674,-0.011513821776655254
9.519386834986475,-0.009929756586960912
9.523294259092276,-0.00812950822361323
9.527201683198077,-0.00641889443408657
9.531109107303879,-0.004992344336064804
9.53501653140968,-0.00393289841744131
9.53892395551548,-0.003212208536318978
9.542831379621282,-0.0027149496682429
9.546738803727083,-0.0023702652386022784
9.550646227832884,-0.0021234219150545195
9.554553651938685,-0.0019283984001938152
9.558461076044486,-0.0017492821231524969
9.562368500150287,-0.0015602692396010421
9.566275924256088,-0.0013456646317480652
9.570183348361889,-0.0010998819083403253
9.57409077246769,-0.0008274434046627271
9.57799819657349,-0.000533726781525792
9.581905620679292,-0.00021059655431393304
9.585813044785093,0.00014407287741807307
9.589720468890894,0.0005316773134804995
9.593627892996695,0.0009530337035169587
9.597535317102496,0.0014083801470044007
9.601442741208297,0.001897375893253115
9.605350165314098,0.002419101341406728
9.609257589419899,0.002972058040442207
9.6131650135257,0.0035541686891698548
9.617072437631501,0.00416280765899958
9.620979861737302,0.004794582701451118
9.624887285843103,0.005444504290040345
9.628794709948904,0.0061070046726899195
9.632702134054705,0.006776107946182911
9.636609558160506,0.007445430056162803
9.640516982266307,0.008108178797133495
9.644424406372108,0.008757153812459305
9.64833183047791,0.009384746594364952
9.65223925458371,0.009982940483935585
9.656146678689511,0.010543310671116756
9.660054102795312,0.011059449799460329
9.663961526901113,0.011524507002723982
9.667868951006914,0.011928027403555449
9.671776375112714,0.012259118770069391
9.675683799218515,0.012506457354684268
9.679591223324316,0.01265828789412142
9.683498647430117,0.012703013703395489
9.687406071535918,0.012640165095806094
9.691313495641719,0.012472780501881612
9.69522091974752,0.01220432385781074
9.699128343853321,0.011840442681202318
9.703035767959122,0.011388968071085314
9.706943192064923,0.010859914707908832
9.710850616170724,0.010263725824482576
9.714758040276525,0.00961049629876975
9.718665464382326,0.008916487749153735
9.722572888488127,0.00819696644652295
9.726480312593928,0.007465762161324805
9.73038773669973,0.0067352681635657035
9.73429516080553,0.006016441222811032
9.738202584911331,0.00531880160818517
9.742110009017132,0.004650433088371492
9.746017433122933,0.004017982931612352
9.749924857228734,0.0034266619057091016
9.753832281334535,0.002880244278022079
9.757739705440336,0.0023810678154706135
9.761647129546137,0.0019300337845330248
9.765554553651938,0.0015266069512466177
9.76946197775774,0.0011689944610863202
9.77336940186354,0.0008572915692171791
9.777276825969341,0.0005884192498240108
9.781184250075142,0.0003580124761700476
9.785091674180943,0.0001619513117097635
9.788999098286745,-3.6390899111279646e-06
9.792906522392546,-0.00014238848485566996
9.796813946498347,-0.0002576815390956664
9.800721370604148,-0.00035265782841167946
9.804628794709949,-0.0004302118383930299
9.80853621881575,-0.0004929929644377977
9.81244364292155,-0.0005434055117528225
9.816351067027352,-0.000583608695353701
9.820258491133153,-0.0006155166400647902
9.824165915238954,-0.0006407983805192064
9.828073339344755,-0.0006608778611588242
9.831980763450556,-0.0006769339362342783
9.835888187556357,-0.0006899003698049582
9.839795611662158,-0.000700465835739017
9.843703035767959,-0.0007090739177133655
9.84761045987376,-0.00071592310921367
9.851517883979561,-0.0007212914373278147
9.855425308085362,-0.000725853480713301
9.859332732191163,-0.0007296228442285766
9.863240156296964,-0.0007325850774637405
9.867147580402765,-0.0007347294839306002
9.871055004508566,-0.0007360491210626711
9.874962428614367,-0.0007365408002151774
9.878869852720168,-0.0007362050866650509
9.88277727682597,-0.0007350462996109319
9.88668470093177,-0.0007330725121731693
9.890592125037571,-0.0007302955513938198
9.894499549143372,-0.0007267309982366483
9.898406973249173,-0.0007223981875871282
9.902314397354974,-0.000717320208252441
9.906221821460775,-0.0007115239029614767
9.910129245566576,-0.000705039868364833
9.914036669672377,-0.0006979024550348164
9.917944093778178,-0.0006901497674654414
9.92185151788398,-0.0006818236640724306
9.92575894198978,-0.0006729697571932153
9.929666366095582,-0.0006636374130869344
9.933573790201383,-0.0006538930904679054
9.937481214307184,-0.0006438765939445431
9.941388638412985,-0.0006337148195063238
9.945296062518786,-0.0006235216998134495
9.949203486624587,-0.0006134016346569669
9.953110910730388,-0.0006034494909587668
9.957018334836189,-0.0005937506027715847
9.96092575894199,-0.000584380771279
9.96483318304779,-0.0005754062647954371
9.968740607153592,-0.0005668838187661643
9.972648031259393,-0.0005588606357672946
9.976555455365194,-0.0005513743855057853
9.980462879470995,-0.0005444532048194381
9.984370303576796,-0.0005381156976768989
9.988277727682597,-0.0005323709351776585
9.992185151788398,-0.0005272184555520516
9.996092575894199,-0.0005226482641612574
10.0,-0.0005186408334972998
