time,amplitude
0.00035515567657107283,0.039985414584583004
0.004261868118858647,0.03744141480121344
0.008168580561145777,0.03222215985100134
0.012075293003432908,0.024984793266071274
0.015982005445720038,0.01669080294680788
0.019888717888007168,0.008281589771952782
0.023795430330294298,0.0004891841477572718
0.027702142772581873,-0.006165411385956235
0.031608855214869,-0.011372222155791374
0.03551556765715613,-0.01502808177798489
0.03942228009944326,-0.017019504255642144
0.04332899254173039,-0.017591633941594072
0.047235704984017524,-0.017141661780765073
0.0511424174263051,-0.016014218094991768
0.05504912986859223,-0.014501372583023597
0.05895584231087936,-0.012842634320521998
0.06286255475316649,-0.011224951760060893
0.06676926719545362,-0.009782712731126582
0.07067597963774075,-0.008597744440117728
0.07458269208002832,-0.007699313470345342
0.07848940452231545,-0.007064125782033017
0.08239611696460258,-0.006616490017160821
0.08630282940688971,-0.006268200647938068
0.09020954184917684,-0.005987086075434077
0.09411625429146397,-0.005751296359526307
0.09802296673375155,-0.005541595843187833
0.10192967917603868,-0.005341363152487448
0.10583639161832581,-0.00513659119658952
0.10974310406061294,-0.004915887167754086
0.11364981650290007,-0.004670472541336828
0.1175565289451872,-0.004394183075789074
0.12146324138747477,-0.004083468812657764
0.1253699538297619,-0.003737394076585585
0.12927666627204903,-0.0033576374753107696
0.13318337871433616,-0.002948491899667233
0.1370900911566233,-0.002515553248871406
0.14099680359891043,-0.0020541380116834
0.14490351604119756,-0.0015625847520450657
0.14881022848348513,-0.001041387588196395
0.15271694092577226,-0.0004914894495888465
0.1566236533680594,8.571792311501012e-05
0.16053036581034652,0.0006883939780412602
0.16443707825263365,0.0013142493521047013
0.16834379069492078,0.001960545871008846
0.17225050313720836,0.002624096549245991
0.17615721557949549,0.0033012655900969247
0.18006392802178262,0.0039879683856313694
0.18397064046406975,0.004679671516707687
0.18787735290635688,0.005371392752972953
0.191784065348644,0.006057701052862953
0.19569077779093158,0.006732716563602268
0.1995974902332187,0.007390110621203947
0.20350420267550584,0.00802490452233737
0.20741091511779297,0.008633339953012216
0.2113176275600801,0.009207785607304555
0.21522434000236723,0.009741191966312526
0.2191310524446548,0.010227240050876184
0.22303776488694194,0.010660341421577279
0.22694447732922907,0.011035638178739598
0.2308511897715162,0.011349002962428727
0.23475790221380333,0.011597038952452116
0.23866461465609046,0.011777079868359078
0.24257132709837803,0.011887189969440794
0.24647803954066516,0.011926164054730277
0.2503847519829523,0.011893527463002441
0.2542914644252394,0.011789536072774045
0.25819817686752655,0.011615176302303715
0.2621048893098137,0.011372165109591931
0.26601160175210126,0.011062949992381006
0.2699183141943884,0.010690708988155214
0.2738250266366755,0.010259350674140598
0.27773173907896265,0.00977351416730509
0.2816384515212498,0.009236334413044778
0.2855451639635369,0.008650913013784182
0.28945187640582404,0.00802508166458275
0.2933585888481116,0.007366364648432518
0.29726530129039874,0.006681885198756114
0.3011720137326859,0.005978365499406309
0.305078726174973,0.005262126684666307
0.30898543861726013,0.004539088839249677
0.31289215105954726,0.003814770998300354
0.31679886350183484,0.0030942911473925546
0.32070557594412197,0.0023823662225311024
0.3246122883864091,0.001683312110150945
0.32851900082869623,0.001001043647117469
0.33242571327098336,0.00033907462072642856
0.3363324257132705,-0.00029948223129606065
0.34023913815555806,-0.0009119152207935823
0.3441458505978452,-0.0014959137091791527
0.3480525630401323,-0.002049568107435633
0.35195927548241945,-0.0025713698761154497
0.3558659879247066,-0.0030602115253406635
0.3597727003669937,-0.0035153866148029816
0.3636794128092813,-0.003936514297770489
0.3675861252515684,-0.004321375573795463
0.37149283769385555,-0.004670571192504233
0.3753995501361427,-0.004986255896635951
0.3793062625784298,-0.005270517052738829
0.38321297502071694,-0.0055253746511701425
0.3871196874630045,-0.005752781306096254
0.39102639990529164,-0.0059546222554925105
0.3949331123475788,-0.0061327153611434
0.3988398247898659,-0.0062888111086424475
0.40274653723215303,-0.006424592607392239
0.40665324967444016,-0.00654167559060442
0.41055996211672774,-0.0066416084152997115
0.41446667455901487,-0.006725872062307863
0.418373387001302,-0.006795880136267717
0.42228009944358913,-0.006852978865627175
0.42618681188587626,-0.006898447102643192
0.4300935243281634,-0.006933496323381787
0.4340002367704505,-0.006959270627718044
0.4379069492127381,-0.006976846739336107
0.4418136616550252,-0.006987234005729178
0.44572037409731236,-0.006991374398199529
0.4496270865395995,-0.006990142511858491
0.4535337989818866,-0.006984345565626448
0.45744051142417375,-0.006974723402232869
0.4613472238664613,-0.006961948488216256
0.46525393630874845,-0.006946625913924197
0.4691606487510356,-0.006929293393513327
0.4730673611933227,-0.006910421264949354
0.47697407363560984,-0.006890412490007038
0.48088078607789697,-0.006869602654270205
0.48478749852018455,-0.006848259967131743
0.4886942109624717,-0.006826585261793609
0.4926009234047588,-0.0068047119952668106
0.49650763584704594,-0.0067827062483714305
0.5004143482893331,-0.006760566725736598
0.5043210607316202,-0.006738224755800508
0.5082277731739078,-0.00671554429081043
0.5121344856161949,-0.006692321906822682
0.516041198058482,-0.0066682868037026555
0.5199479105007692,-0.006643194431822768
0.5238546229430563,-0.006617780475110282
0.5277613353853434,-0.006592310691092964
0.531668047827631,-0.006566810910531578
0.5355747602699181,-0.00654130524437896
0.5394814727122053,-0.006515816083779994
0.5433881851544924,-0.006490364100071631
0.5472948975967795,-0.00646496824478288
0.5512016100390666,-0.0064396457496348125
0.5551083224813542,-0.006414412126540558
0.5590150349236414,-0.006389281167605313
0.5629217473659285,-0.006364264945126328
0.5668284598082156,-0.006339373811592916
0.5707351722505027,-0.006314616399686453
0.5746418846927899,-0.0062899996222803714
0.578548597135077,-0.006265528672440168
0.5824553095773646,-0.006241207023423397
0.5863620220196517,-0.006217036428679679
0.5902687344619388,-0.00619301692185069
0.594175446904226,-0.006169146816770168
0.5980821593465131,-0.0061454227074639114
0.6019888717888002,-0.006121839468149781
0.6058955842310878,-0.006098390253237692
0.6098022966733749,-0.006075066497329632
0.6137090091156621,-0.00605185791521964
0.6176157215579492,-0.006028752501893817
0.6215224340002363,-0.006005736532530328
0.6254291464425235,-0.005982794562499394
0.629335858884811,-0.005959909427363298
0.6332425713270982,-0.00593706224287639
0.6371492837693853,-0.005914232404985072
0.6410559962116724,-0.00589139758982781
0.6449627086539595,-0.005868533753735133
0.6488694210962467,-0.0058456151332296254
0.6527761335385343,-0.005822614245025936
0.6566828459808214,-0.005799501886030776
0.6605895584231085,-0.005776247133342913
0.6644962708653956,-0.005752817344253178
0.6684029833076828,-0.005729178156244461
0.6723096957499699,-0.005705293486991714
0.6762164081922575,-0.005681125534361946
0.6801231206345446,-0.005657100458987
0.6840298330768317,-0.005633558040966013
0.6879365455191189,-0.005609629332487996
0.691843257961406,-0.005584268471928878
0.6957499704036931,-0.005556268950771519
0.6996566828459807,-0.00552426361360571
0.7035633952882678,-0.005486724658128183
0.707470107730555,-0.005441963635142591
0.7113768201728421,-0.005388131448559524
0.7152835326151292,-0.005323218355396502
0.7191902450574164,-0.005245053965777981
0.7230969574997035,-0.005151307242935346
0.7270036699419911,-0.005039486503206901
0.7309103823842782,-0.004906939416037921
0.7348170948265653,-0.004750853003980576
0.7387238072688525,-0.004568253642693979
0.7426305197111396,-0.004356007060944179
0.7465372321534267,-0.004110818340604152
0.7504439445957143,-0.0038292319166537752
0.7543506570380014,-0.0035076315771799555
0.7582573694802885,-0.003142240463376436
0.7621640819225757,-0.0027291210695439246
0.7660707943648628,-0.0022641752430900596
0.7699775068071499,-0.0017426112613079144
0.7738842192494375,-0.0011639615639911088
0.7777909316917246,-0.0005389709895715434
0.7816976441340118,0.00012072522049651896
0.7856043565762989,0.0008034544799841057
0.789511069018586,0.0014975068578876
0.7934177814608732,0.00219113507842874
0.7973244939031607,0.0028725545210546905
0.8012312063454479,0.003529943220437741
0.805137918787735,0.004151441866475772
0.8090446312300221,0.004725153804291933
0.8129513436723093,0.005239145034234737
0.8168580561145964,0.005681444211878045
0.820764768556884,0.00604004264802111
0.8246714809991711,0.0063028943086884184
0.8285781934414582,0.006457915815129944
0.8324849058837454,0.006492982702421066
0.8363916183260325,0.006398046000955527
0.8402983307683196,0.006181432883551874
0.8442050432106072,0.005857719557126074
0.8481117556528943,0.005441102495199414
0.8520184680951814,0.004945398437898274
0.8559251805374686,0.004384044391954273
0.8598318929797557,0.0037700976307042276
0.8637386054220428,0.0031162356940901597
0.86764531786433,0.002434756388659292
0.8715520303066175,0.0017375777875639712
0.8754587427489047,0.0010362382305619897
0.8793654551911918,0.0003418963240160921
0.8832721676334789,-0.00033466905910568313
0.8871788800757661,-0.0009830587792301034
0.8910855925180532,-0.0015932534301787236
0.8949923049603408,-0.002155613339167974
0.8988990174026279,-0.0026601000827427422
0.902805729844915,-0.003106452482840289
0.9067124422872022,-0.0035181258462911036
0.9106191547294893,-0.003921209527546263
0.9145258671717764,-0.004342446029148361
0.918432579614064,-0.004809231001731558
0.9223392920563511,-0.00534961324402137
0.9262460044986383,-0.00599229470283498
0.9301527169409254,-0.006766630473081034
0.9340594293832125,-0.007702628797759689
0.9379661418254996,-0.00882571326361171
0.9418728542677872,-0.010037282276681029
0.9457795667100743,-0.01112176286223742
0.9496862791523615,-0.01186082543626127
0.9535929915946486,-0.012037602054763064
0.9574997040369357,-0.011436686413783531
0.9614064164792229,-0.009844133849393645
0.9653131289215104,-0.007047461337694224
0.9692198413637976,-0.002829194559560422
0.9731265538060847,0.0028482104292552376
0.9770332662483718,0.009665926283663659
0.980939978690659,0.017170256219709322
0.9848466911329461,0.024787964748794446
0.9887534035752337,0.03182627767767978
0.9926601160175208,0.03747288210848135
0.9965668284598079,0.04079592643867552
1.000473540902095,0.040861279843952845
1.0043802533443822,0.0377857859814186
1.0082869657866693,0.03230313810218788
1.0121936782289565,0.025149159273363697
1.0161003906712436,0.01705521081305854
1.0200071031135307,0.008748192290394231
1.0239138155558178,0.0009505415255019953
1.0278205279981059,-0.005627078934122722
1.031727240440393,-0.010634788988261463
1.0356339528826801,-0.014112160959799652
1.0395406653249673,-0.016146651062695187
1.0434473777672544,-0.016884404581895496
1.0473540902095415,-0.01653025587333748
1.0512608026518286,-0.015347728363947558
1.0551675150941158,-0.013659034551641653
1.059074227536403,-0.011841181636401243
1.06298093997869,-0.010162361064670552
1.0668876524209772,-0.008702934519662928
1.0707943648632643,-0.0075069048292029554
1.0747010773055523,-0.006588797764112568
1.0786077897478394,-0.005933662038211823
1.0825145021901266,-0.005497069308317654
1.0864212146324137,-0.005205114174244772
1.0903279270747008,-0.00496540803959572
1.094234639516988,-0.004750328843199589
1.098141351959275,-0.00454735034615638
1.1020480644015622,-0.00434330751061144
1.1059547768438494,-0.004127614422424655
1.1098614892861365,-0.00389226429117045
1.1137682017284236,-0.003631829450137787
1.1176749141707107,-0.003343461356330165
1.1215816266129988,-0.0030268905904655484
1.125488339055286,-0.0026840722155066364
1.129395051497573,-0.0023136751168450933
1.1333017639398602,-0.0019138645736739993
1.1372084763821473,-0.0014838376911404294
1.1411151888244344,-0.0010232512732031513
1.1450219012667215,-0.000532221822632625
1.1489286137090087,-1.1325541011004189e-05
1.1528353261512958,0.0005384016712678629
1.156742038593583,0.0011154642149984375
1.16064875103587,0.0017179067921634858
1.1645554634781572,0.002343314405934084
1.1684621759204443,0.002988812360669611
1.1723688883627323,0.0036510662619179063
1.1762756008050195,0.0043262820164146655
1.1801823132473066,0.005010205832084335
1.1840890256895937,0.005698711086245806
1.1879957381318809,0.0063904849833651516
1.191902450574168,0.007078448425638372
1.1958091630164551,0.007754696739499805
1.1997158754587423,0.00841182174845226
1.2036225879010294,0.00904291177306702
1.2075293003433165,0.009641551630983843
1.2114360127856036,0.010201822636910954
1.2153427252278908,0.010718302602625056
1.2192494376701788,0.011186065836971426
1.223156150112466,0.011600683145863495
1.227062862554753,0.011958221832283494
1.2309695749970402,0.012255245696282016
1.2348762874393273,0.012488815034978125
1.2387829998816144,0.012656486642559361
1.2426897123239016,0.012756313810281736
1.2465964247661887,0.01278684632646973
1.2505031372084758,0.012747130476516298
1.254409849650763,0.012636709042882874
1.25831656209305,0.012455621305099359
1.2622232745353372,0.012203567458740319
1.2661299869776252,0.01187436914096128
1.2700366994199124,0.011473457822701035
1.2739434118621995,0.011009149794454994
1.2778501243044866,0.0104894167417755
1.2817568367467738,0.00992188574527176
1.285663549189061,0.009313839280609843
1.289570261631348,0.008672215218512688
1.2934769740736352,0.00800360682476009
1.2973836865159223,0.007314262760188718
1.3012903989582094,0.0066100870806921
1.3051971114004965,0.005896639237220628
1.3091038238427837,0.005179134075781561
1.3130105362850708,0.0044624418374390185
1.3169172487273588,0.003751088158313834
1.320823961169646,0.003049254069584173
1.324730673611933,0.002360775997484594
1.3286373860542202,0.0016891457633066743
1.3325440984965073,0.0010375105833988641
1.3364508109387945,0.00040867306916646945
1.3403575233810816,-0.0001949087729283365
1.3442642358233687,-0.0007711215413665207
1.3481709482656559,-0.0013181964395721727
1.352077660707943,-0.001834709275912531
1.3559843731502301,-0.0023195804636979584
1.3598910855925173,-0.002772075021181963
1.3637977980348053,-0.0031918025715612815
1.3677045104770924,-0.0035787173429754834
1.3716112229193795,-0.0039331181685076
1.3755179353616667,-0.004255643605786819
1.3794246478039538,-0.004546487520490871
1.383331360246241,-0.004806933073569321
1.387238072688528,-0.005039092754910625
1.3911447851308152,-0.005245000405641071
1.3950514975731023,-0.0054266112181247834
1.3989582100153894,-0.005585801735963718
1.4028649224576766,-0.005724369853997666
1.4067716348999637,-0.0058440348183042504
1.4106783473422517,-0.005946437226198951
1.4145850597845389,-0.006033139026235009
1.418491772226826,-0.006105623518203576
1.4223984846691131,-0.006165295353133609
1.4263051971114002,-0.006213480533291897
1.4302119095536874,-0.006251426412183067
1.4341186219959745,-0.00628030169454958
1.4380253344382616,-0.0063011964363717185
1.4419320468805488,-0.006315122044867614
1.445838759322836,-0.006323011278493223
1.449745471765123,-0.006325718246942337
1.4536521842074102,-0.006324018411146585
1.4575588966496973,-0.00631860858327542
1.4614656090919853,-0.006310106926736138
1.4653723215342724,-0.0062990529561738635
1.4692790339765596,-0.006285907537471557
1.4731857464188467,-0.006271052887750012
1.4770924588611338,-0.006254792575367848
1.480999171303421,-0.006237351519921537
1.484905883745708,-0.006218875992245359
1.4888125961879952,-0.006199433614411453
1.4927193086302823,-0.006179013359729772
1.4966260210725695,-0.006157651989790142
1.5005327335148566,-0.006135925964202986
1.5044394459571437,-0.006113952472160272
1.5083461583994318,-0.006091762249181109
1.5122528708417189,-0.006069384669269566
1.516159583284006,-0.006046847744914634
1.5200662957262931,-0.006024178127090251
1.5239730081685803,-0.006001401105255297
1.5278797206108674,-0.005978540607353591
1.5317864330531545,-0.005955619199813893
1.5356931454954417,-0.005932658087549905
1.5395998579377288,-0.005909677113960268
1.543506570380016,-0.005886694760928565
1.547413282822303,-0.0058637281488233195
1.5513199952645902,-0.005840793036497995
1.5552267077068782,-0.005817903821290992
1.5591334201491653,-0.005795073539025666
1.5630401325914525,-0.0057723138640102985
1.5669468450337396,-0.005749635109038116
1.5708535574760267,-0.0057270462253872865
1.5747602699183139,-0.005704554802820918
1.578666982360601,-0.005682167069587061
1.5825736948028881,-0.0056598878924187055
1.5864804072451753,-0.005637720776533781
1.5903871196874624,-0.00561566786563516
1.5942938321297495,-0.005593729941910656
1.5982005445720366,-0.005571906426033019
1.6021072570143238,-0.0055501953771599465
1.6060139694566118,-0.005528593492934064
1.609920681898899,-0.00550709610948296
1.613827394341186,-0.005485697201419145
1.6177341067834732,-0.005464389381840074
1.6216408192257603,-0.005443163902328146
1.6255475316680474,-0.005422010652950699
1.6294542441103346,-0.005400918162260012
1.6333609565526217,-0.0053798735972933045
1.6372676689949088,-0.0053587206704778035
1.641174381437196,-0.005337116634161127
1.645081093879483,-0.005315338800726751
1.6489878063217702,-0.005293639584531032
1.6528945187640582,-0.005272193160048851
1.6568012312063454,-0.005251095461873631
1.6607079436486325,-0.005230364184717311
1.6646146560909196,-0.005209938783410364
1.6685213685332068,-0.005189680472901791
1.672428080975494,-0.005169372228259122
1.676334793417781,-0.005148718784668418
1.6802415058600682,-0.0051273466374342665
1.6841482183023553,-0.005104804041979785
1.6880549307446424,-0.005080561013846621
1.6919616431869295,-0.0050540093286949505
1.6958683556292167,-0.005024462522303477
1.6997750680715047,-0.004991155890569428
1.7036817805137918,-0.00495324648950858
1.707588492956079,-0.004909813135255219
1.711495205398366,-0.004861752853891452
1.7154019178406532,-0.004810794460300239
1.7193086302829403,-0.0047509404527315315
1.7232153427252275,-0.004676284408582592
1.7271220551675146,-0.0045814546381366715
1.7310287676098017,-0.0044616141845630125
1.7349354800520889,-0.004312460823916842
1.738842192494376,-0.00413022706513938
1.7427489049366631,-0.003911680150057835
1.7466556173789503,-0.0036541220533854
1.7505623298212383,-0.003355389482721191
1.7544690422635254,-0.003013853878550516
1.7583757547058125,-0.002628421414244475
1.7622824671480997,-0.00219853299606022
1.7661891795903868,-0.0017241642631408917
1.770095892032674,-0.0012058255875156223
1.774002604474961,-0.0006445620740995282
1.7779093169172482,-4.1953560693717105e-05
1.7818160293595353,0.0005998853820147138
1.7857227418018224,0.0012781620020660901
1.7896294542441096,0.0019812648400856147
1.7935361666863967,0.0026909610764492466
1.7974428791286847,0.003390055445656863
1.8013495915709719,0.0040625413773030085
1.805256304013259,0.004693600996077853
1.8091630164555461,0.005269605121766545
1.8130697288978332,0.005778113269249379
1.8169764413401204,0.0062078736485017905
1.8208831537824075,0.006548823164594359
1.8247898662246946,0.0067920874176928036
1.8286965786669818,0.006929980703057988
1.832603291109269,0.006956006011045922
1.836510003551556,0.0068648504832568135
1.8404167159938432,0.006653258955923278
1.8443234284361312,0.006330913350525703
1.8482301408784183,0.0059120817078871365
1.8521368533207054,0.0054108163013900906
1.8560435657629926,0.004840953636976814
1.8599502782052797,0.004216114453149228
1.8638569906475668,0.0035497037209689317
1.867763703089854,0.0028549106440571943
1.871670415532141,0.0021447086585949645
1.8755771279744282,0.0014318554333228603
1.8794838404167153,0.0007288928695411805
1.8833905528590025,4.814710110989228e-05
1.8872972653012896,-0.0005982715055513578
1.8912039777435767,-0.0011873228226197234
1.8951106901858648,-0.0016022828689876661
1.8990174026281519,-0.0018971815605342388
1.902924115070439,-0.002162016502712476
1.9068308275127261,-0.002469397576267957
1.9107375399550133,-0.002874546937238917
1.9146442523973004,-0.0034152990169562534
1.9185509648395875,-0.004112100522043523
1.9224576772818747,-0.0049680104344169375
1.9263643897241618,-0.00596870001128537
1.930271102166449,-0.007082452785150357
1.934177814608736,-0.008260164563806082
1.9380845270510232,-0.009435343430339409
1.9419912394933112,-0.010524109743130065
1.9458979519355983,-0.011425196135849702
1.9498046643778855,-0.012019947517463412
1.9537113768201726,-0.012173302772432164
1.9576180892624597,-0.011655815863042396
1.9615248017047469,-0.010065265922605891
1.965431514147034,-0.007125566248991193
1.9693382265893211,-0.002733351872090598
1.9732449390316082,0.0030420204461798737
1.9771516514738954,0.00995847221188044
1.9810583639161825,0.017601203199047583
1.9849650763584696,0.02538269144969401
1.9888717888007577,0.032539906889241695
1.9927785012430448,0.03803891076154485
1.996685213685332,0.041016999284341306
2.000591926127619,0.04102164787782771
2.004498638569906,0.03801142768085687
2.0084053510121933,0.032356005550937796
2.0123120634544804,0.024836144064235618
2.0162187758967676,0.016488677065057612
2.0201254883390547,0.008143266457438594
2.024032200781342,0.00048504271262747936
2.027938913223629,-0.005992355204021176
2.031845625665916,-0.010987838176803707
2.035752338108203,-0.014392866939667359
2.0396590505504912,-0.016291452076210546
2.0435657629927784,-0.01684631962567338
2.0474724754350655,-0.016305310227869525
2.0513791878773526,-0.015057455761000885
2.0552859003196398,-0.013429483154167789
2.059192612761927,-0.01168433480931453
2.063099325204214,-0.01002116860122936
2.067006037646501,-0.00857535787754449
2.0709127500887883,-0.0074184914587360675
2.0748194625310754,-0.006558373638124258
2.0787261749733625,-0.005924009655781668
2.0826328874156497,-0.005428144995139173
2.0865395998579377,-0.0050414369842956205
2.090446312300225,-0.004738095309570494
2.094353024742512,-0.004494710153647025
2.098259737184799,-0.004290252195572561
2.102166449627086,-0.00410607261075847
2.1060731620693733,-0.00392590307098014
2.1099798745116605,-0.0037358557443769765
2.1138865869539476,-0.003524423295452402
2.1177932993962347,-0.0032824788850738646
2.121700011838522,-0.003003276170472826
2.125606724280809,-0.0026824493052447678
2.129513436723096,-0.0023180129393491873
2.133420149165384,-0.0019103622191095184
2.1373268616076713,-0.0014622727872134703
2.1412335740499584,-0.0009789007827125202
2.1451402864922455,-0.0004677828410222509
2.1490469989345327,6.13462015605622e-05
2.15295371137682,0.0006130729195895153
2.156860423819107,0.0011927739417727046
2.160767136261394,0.0017978000113454246
2.164673848703681,0.0024252128947683713
2.1685805611459683,0.0030717853817276396
2.1724872735882554,0.003734001285134725
2.1763939860305426,0.004408055441126523
2.1803006984728297,0.005089853709065331
2.1842074109151177,0.005775012971538995
2.188114123357405,0.006458861134360306
2.192020835799692,0.007136437126567907
2.195927548241979,0.0078024909004257
2.1998342606842662,0.00845148343142298
2.2037409731265534,0.009077586718274442
2.2076476855688405,0.009674683782920182
2.2115543980111276,0.010236368670525697
2.2154611104534148,0.010755946449481885
2.219367822895702,0.011226679898694419
2.223274535337989,0.011644464866229269
2.227181247780276,0.012005099960490156
2.231087960222564,0.012304589664802138
2.2349946726648513,0.01253961905589835
2.2389013851071384,0.012707553803920418
2.2428080975494256,0.012806440172418165
2.2467148099917127,0.012835005018349695
2.250621522434,0.012792655792081387
2.254528234876287,0.012679480537387895
2.258434947318574,0.012496247891452148
2.262341659760861,0.01224440708486536
2.2662483722031483,0.011926087941627013
2.2701550846454355,0.011544100879144866
2.2740617970877226,0.011101936908234963
2.2779685095300106,0.010603767633121491
2.2818752219722978,0.01005444525143727
2.285781934414585,0.009459502554223068
2.289688646856872,0.008825152925928023
2.293595359299159,0.008158290344409553
2.2975020717414463,0.0074664893809333645
2.3014087841837334,0.006757997281216827
2.3053154966260205,0.006037562913284857
2.3092222090683077,0.005308999640025841
2.313128921510595,0.004578373405348024
2.317035633952882,0.0038512845805179275
2.320942346395169,0.0031328679641603463
2.324849058837456,0.0024277927822583577
2.328755771279744,0.0017402626881531545
2.3326624837220313,0.0010740157625446778
2.3365691961643185,0.0004323245134906714
2.3404759086066056,-0.00018200412359268767
2.3443826210488927,-0.0007666287859309411
2.34828933349118,-0.0013196736833913612
2.352196045933467,-0.0018397285984829356
2.356102758375754,-0.0023258488863563825
2.3600094708180412,-0.0027775554748041414
2.3639161832603284,-0.0031948348642603774
2.3678228957026155,-0.0035781391278009757
2.3717296081449026,-0.003928385911143547
2.3756363205871907,-0.004246958432647493
2.379543033029478,-0.004535705483313734
2.383449745471765,-0.004796418159142467
2.387356457914052,-0.005028923977271397
2.391263170356339,-0.005234978287246154
2.3951698827986263,-0.005416588497246799
2.3990765952409134,-0.005575677957837017
2.4029833076832006,-0.005714085961964119
2.4068900201254877,-0.005833567744959042
2.410796732567775,-0.005935794484536346
2.414703445010062,-0.006022353300794219
2.418610157452349,-0.006094747256214473
2.422516869894637,-0.0061543953556625584
2.4264235823369242,-0.0062026325463875095
2.4303302947792114,-0.006240709718022032
2.4342370072214985,-0.00626979370258244
2.4381437196637856,-0.0062909672744686715
2.4420504321060728,-0.006305229150464289
2.44595714454836,-0.006313493989736485
2.449863856990647,-0.006316592393836076
2.453770569432934,-0.006315270906697499
2.4576772818752213,-0.0063101920146388215
2.4615839943175084,-0.006301934146361734
2.4654907067597955,-0.0062909916729515574
2.4693974192020827,-0.006277774907877228
2.4733041316443707,-0.006262610106991313
2.477210844086658,-0.006245753913432423
2.481117556528945,-0.006227756145484798
2.485024268971232,-0.006208894082875229
2.488930981413519,-0.006189259105773629
2.4928376938558063,-0.006168938295427229
2.4967444062980935,-0.006148014434160576
2.5006511187403806,-0.00612656600537553
2.5045578311826677,-0.006104667193551268
2.508464543624955,-0.006082387884244284
2.512371256067242,-0.006059793664088386
2.516277968509529,-0.006036945820794698
2.520184680951817,-0.006013901343151654
2.5240913933941043,-0.0059907129210250215
2.5279981058363914,-0.005967428945357866
2.5319048182786785,-0.005944093508170574
2.5358115307209657,-0.005920746402560849
2.539718243163253,-0.00589742312270371
2.54362495560554,-0.005874154863851489
2.547531668047827,-0.0058509685223338374
2.551438380490114,-0.00582788669555772
2.5553450929324013,-0.005804927682007418
2.5592518053746884,-0.005782105481244529
2.5631585178169756,-0.005759429793907964
2.5670652302592636,-0.005736906021713947
2.5709719427015507,-0.005714535267456033
2.574878655143838,-0.005692314335005076
2.578785367586125,-0.005670235729309251
2.582692080028412,-0.005648287656394049
2.5865987924706992,-0.005626454023362276
2.5905055049129864,-0.005604714438394056
2.5944122173552735,-0.005583044210746826
2.5983189297975606,-0.00556141435075534
2.6022256422398478,-0.0055397915698316685
2.606132354682135,-0.005517888370008458
2.610039067124422,-0.005495504287789437
2.613945779566709,-0.0054728783697989645
2.617852492008997,-0.005450219126479054
2.6217592044512843,-0.005427701893613358
2.6256659168935714,-0.005405468832327136
2.6295726293358586,-0.005383628929087275
2.6334793417781457,-0.0053622579957022815
2.637386054220433,-0.0053413986693222875
2.64129276666272,-0.005321060412439043
2.645199479105007,-0.005301219512885924
2.649106191547294,-0.005281819083837925
2.6530129039895813,-0.0052627690638116665
2.6569196164318685,-0.005243946216665386
2.6608263288741556,-0.005225194131598947
2.6647330413164436,-0.005206323223153829
2.6686397537587307,-0.0051871107312131464
2.672546466201018,-0.0051673007210016235
2.676453178643305,-0.00514660408308561
2.680359891085592,-0.005124698533373078
2.6842666035278793,-0.0051012286131136226
2.6881733159701664,-0.0050758056888984575
2.6920800284124535,-0.005048007952660423
2.6959867408547407,-0.005017380421673978
2.699893453297028,-0.004983434938555205
2.703800165739315,-0.0049456590426265245
2.707706878181602,-0.004904420541147844
2.71161359062389,-0.004857615884833442
2.715520303066177,-0.004801646536521148
2.7194270155084643,-0.004732985185924336
2.7233337279507515,-0.004648175749631955
2.7272404403930386,-0.004543833371108524
2.7311471528353257,-0.004416644420694135
2.735053865277613,-0.0042633664956044474
2.7389605777199,-0.004080828419930691
2.742867290162187,-0.0038659302446396645
2.7467740026044742,-0.003615643247573738
2.7506807150467614,-0.00332700993345085
2.7545874274890485,-0.0029971440338645095
2.7584941399313356,-0.002623230507283796
2.7624008523736236,-0.0022025255390532546
2.766307564815911,-0.0017323565413932974
2.770214277258198,-0.0012096258366476281
2.774120989700485,-0.0006289903685659605
2.778027702142772,-1.8304201511703394e-09
2.7819344145850593,0.0006642814942370602
2.7858411270273464,0.0013510026780248134
2.7897478394696336,0.0020475061497341285
2.7936545519119207,0.002741337694327903
2.797561264354208,0.0034202444529409163
2.801467976796495,0.004072174922879826
2.805374689238782,0.004685278957623168
2.80928140168107,0.005247907766821479
2.8131881141233572,0.005748613916296795
2.8170948265656444,0.006176151328043432
2.8210015390079315,0.006519475280227437
2.8249082514502186,0.006767742407186746
2.8288149638925058,0.006910310699431174
2.832721676334793,0.0069367395036424116
2.83662838877708,0.006836271324389073
2.840535101219367,0.006607400979111075
2.8444418136616543,0.006266672566184433
2.8483485261039414,0.005831150279990148
2.8522552385462285,0.005317021424629739
2.8561619509885166,0.00473959641392511
2.8600686634308037,0.0041133087714190835
2.863975375873091,0.0034517151303746097
2.867882088315378,0.0027674952337752856
2.871788800757665,0.0020724519343252234
2.875695513199952,0.0013775111944490563
2.8796022256422393,0.0006927220862919387
2.8835089380845265,2.7256791719536093e-05
2.8874156505268136,-0.0006105893976819593
2.8913223629691007,-0.001213398080605839
2.895229075411388,-0.0017746277460248764
2.899135787853675,-0.0022886137731913253
2.903042500295962,-0.002749799857325758
2.90694921273825,-0.003138832171095034
2.9108559251805373,-0.003500598936803509
2.9147626376228244,-0.0038947629646260574
2.9186693500651115,-0.004367399022399503
2.9225760625073987,-0.004950993835622718
2.926482774949686,-0.005664446087456618
2.930389487391973,-0.006513066418724174
2.93429619983426,-0.007488577427910397
2.938202912276547,-0.008569113671162351
2.9421096247188343,-0.009723151819062758
2.9460163371611214,-0.010902320555122677
2.9499230496034086,-0.011762108501481848
2.9538297620456966,-0.01194833701620509
2.9577364744879837,-0.011187792368838972
2.961643186930271,-0.009288225740412156
2.965549899372558,-0.006138353223434997
2.969456611814845,-0.0017078558218996537
2.9733633242571322,0.003952620548719872
2.9772700366994194,0.010711465061467786
2.9811767491417065,0.01835922763591036
2.9850834615839936,0.026346824923860215
2.9889901740262808,0.03346757078877145
2.992896886468568,0.03871294780083753
2.996803598910855,0.04140639296605504
3.000710311353142,0.04120329772622374
3.00461702379543,0.038091007958945544
3.0085237362377173,0.03238835363176256
3.0124304486800044,0.024820189502553013
3.0163371611222916,0.01642446928562575
3.0202438735645787,0.008089864860276928
3.024150586006866,0.0004979468482352312
3.028057298449153,-0.005876815386338101
3.03196401089144,-0.01076705373684931
3.035870723333727,-0.014101133410487627
3.0397774357760143,-0.015783865565852134
3.0436841482183015,-0.016106449681508025
3.0475908606605886,-0.015464982534387153
3.0514975731028766,-0.014201744365934297
3.0554042855451637,-0.012605198882108487
3.059310997987451,-0.010909993253381156
3.063217710429738,-0.009296958114737248
3.067124422872025,-0.007893107565674984
3.0710311353143123,-0.006771639170205843
3.0749378477565994,-0.0059519339568545986
3.0788445601988865,-0.005399556418659317
3.0827512726411737,-0.005026254513171326
3.086657985083461,-0.004721150032010621
3.090564697525748,-0.004469163741257478
3.094471409968035,-0.004252182777006727
3.098378122410323,-0.004052255514762657
3.10228483485261,-0.0038542222034358697
3.1061915472948973,-0.00364571496534301
3.1100982597371845,-0.0034171577962069525
3.1140049721794716,-0.003161766565156749
3.1179116846217587,-0.0028755490147276326
3.121818397064046,-0.0025573047608610172
3.125725109506333,-0.002208625292904492
3.12963182194862,-0.0018338187841393317
3.1335385343909072,-0.0014323040881921978
3.1374452468331944,-0.001000857552573581
3.1413519592754815,-0.0005390821360465761
3.1452586717177686,-4.705207345469362e-05
3.1491653841600566,0.00047468712427826097
3.1530720966023438,0.0010251186701477045
3.156978809044631,0.0016027545010689924
3.160885521486918,0.002205635277876946
3.164792233929205,0.002831330385325971
3.1686989463714923,0.0034769379320900543
3.1726056588137794,0.004139084750762773
3.1765123712560666,0.004813926397857276
3.1804190836983537,0.005497147153806305
3.184325796140641,0.006183960022962185
3.188232508582928,0.006869106733596815
3.192139221025215,0.007549790345253686
3.196045933467503,0.008221582912402915
3.1999526459097902,0.00887615662903385
3.2038593583520774,0.00950578614872087
3.2077660707943645,0.010103352830020498
3.2116727832366516,0.010662344736471567
3.2155794956789387,0.011176856636595208
3.219486208121226,0.011641590003894857
3.223392920563513,0.012051853016856254
3.2272996330058,0.012403560558947434
3.2312063454480873,0.012693234218618751
3.2351130578903744,0.012918002289302845
3.2390197703326615,0.01307559976941467
3.2429264827749495,0.013164368362351492
3.2468331952172367,0.013183256476492822
3.250739907659524,0.01313181922520055
3.254646620101811,0.013010218426818845
3.258553332544098,0.012819222604674161
3.262460044986385,0.012560206987075277
3.2663667574286723,0.012235153507313256
3.2702734698709595,0.011844714057806497
3.2741801823132466,0.0113886544974383
3.2780868947555337,0.01087471260575975
3.281993607197821,0.010310752376696635
3.285900319640108,0.009704286877801532
3.289807032082395,0.009062478250253797
3.293713744524683,0.00839213770885942
3.2976204569669703,0.007699725542051631
3.3015271694092574,0.006991351111889991
3.3054338818515445,0.006272772854060992
3.3093405942938316,0.005549398277877913
3.313247306736119,0.004826283966280812
3.317154019178406,0.004108135575836535
3.321060731620693,0.003399307836738707
3.32496744406298,0.0027038045528077464
3.3288741565052673,0.0020252786014908365
3.3327808689475544,0.0013670319338619664
3.3366875813898416,0.0007320155746218925
3.3405942938321296,0.00012282962209803072
3.3445010062744167,-0.00045827675175501986
3.348407718716704,-0.0010094053013562799
3.352314431158991,-0.0015290087074978538
3.356221143601278,-0.0020158905773450687
3.3601278560435652,-0.0024692054444364515
3.3640345684858524,-0.002888458768683752
3.3679412809281395,-0.0032731687295588278
3.3718479933704266,-0.0036224973228351125
3.3757547058127138,-0.003938294197776961
3.379661418255001,-0.004222668725923482
3.383568130697288,-0.004477661603165886
3.387474843139576,-0.004705244849747534
3.391381555581863,-0.004907321810263736
3.3952882680241503,-0.0050857271536620605
3.3991949804664374,-0.005242226873242124
3.4031016929087246,-0.005378518286655641
3.4070084053510117,-0.005496230035906431
3.410915117793299,-0.005596922087350413
3.414821830235586,-0.005682085731695607
3.418728542677873,-0.005753143584002132
3.42263525512016,-0.005811449583682217
3.4265419675624473,-0.005858288994500178
3.4304486800047345,-0.005894878404572446
3.4343553924470216,-0.005922365726367547
3.4382621048893096,-0.005941830196706107
3.4421688173315967,-0.0059542823767608525
3.446075529773884,-0.0059606641520566165
3.449982242216171,-0.005961848732470329
3.453888954658458,-0.0059586406522310256
3.4577956671007453,-0.005951775769919837
3.4617023795430324,-0.005941921268470001
3.4656090919853195,-0.005929675655166848
3.4695158044276067,-0.005915568761647821
3.473422516869894,-0.005900061743902463
3.477329229312181,-0.0058835470822724
3.481235941754468,-0.005866348581451386
3.485142654196756,-0.005848721370485248
3.489049366639043,-0.005830851902771956
3.4929560790813303,-0.005812857956061526
3.4968627915236175,-0.0057947886324561295
3.5007695039659046,-0.005776624358409993
3.5046762164081917,-0.005758276884729471
3.508582928850479,-0.005739589286573019
3.512489641292766,-0.005720335963451184
3.516396353735053,-0.005700222639226617
3.5203030661773402,-0.005678952568432457
3.5242097786196274,-0.005657264795424409
3.5281164910619145,-0.005635502401039843
3.5320232035042025,-0.005613692862422916
3.5359299159464896,-0.0055918618109577585
3.5398366283887768,-0.005570033032268445
3.543743340831064,-0.005548228466219013
3.547650053273351,-0.005526468206913462
3.551556765715638,-0.005504770502695747
3.5554634781579253,-0.005483151756149785
3.5593701906002124,-0.005461626524099451
3.5632769030424996,-0.005440207517608579
3.5671836154847867,-0.005418905601980963
3.571090327927074,-0.005397729796760355
3.574997040369361,-0.005376687275730467
3.578903752811648,-0.005355783366914969
3.582810465253936,-0.005335021552577487
3.5867171776962232,-0.0053144034692216196
3.5906238901385104,-0.0052939289075909085
3.5945306025807975,-0.0052735958126688635
3.5984373150230846,-0.0052534002836789485
3.6023440274653717,-0.0052333365740845905
3.606250739907659,-0.005213397091589174
3.610157452349946,-0.005193572398136042
3.614064164792233,-0.005173851209908499
3.6179708772345203,-0.005154220397329805
3.6218775896768074,-0.005134664985063182
3.6257843021190945,-0.00511516815201181
3.6296910145613825,-0.0050957112313188245
3.6335977270036697,-0.005076273710367333
3.637504439445957,-0.005056833230780388
3.641411151888244,-0.005037365588421007
3.645317864330531,-0.005017844733392164
3.649224576772818,-0.004998242770036797
3.6531312892151053,-0.004978529956937799
3.6570380016573925,-0.004958674706918021
3.6609447140996796,-0.004938643587040279
3.6648514265419667,-0.004918401318607341
3.668758138984254,-0.004897910777161941
3.672664851426541,-0.0048771329924867666
3.676571563868829,-0.004856027148604462
3.680478276311116,-0.00483494769365353
3.6843849887534033,-0.00481426843726689
3.6882917011956904,-0.0047930980070356455
3.6921984136379775,-0.004770351967042075
3.6961051260802646,-0.004744784093866404
3.7000118385225518,-0.004714986376586803
3.703918550964839,-0.004679389016779388
3.707825263407126,-0.004636260428518217
3.711731975849413,-0.004583707238375299
3.7156386882917003,-0.004519674285420583
3.7195454007339874,-0.004441944621221965
3.7234521131762746,-0.004348139509845287
3.7273588256185626,-0.004235718427854307
3.7312655380608497,-0.004101979064310808
3.735172250503137,-0.0039440573207744425
3.739078962945424,-0.003758927311302832
3.742985675387711,-0.0035434013624515456
3.7468923878299982,-0.0032941300132740938
3.7507991002722854,-0.0030076020153219337
3.7547058127145725,-0.002680144332644468
3.7586125251568596,-0.0023079221417890462
3.7625192375991467,-0.0018869388318009592
3.766425950041434,-0.0014130360042234461
3.770332662483721,-0.0008796903832098325
3.774239374926009,-0.0002887523475684701
3.778146087368296,0.0003469213952379995
3.7820527998105833,0.0010145567143307515
3.7859595122528704,0.0017015902083276717
3.7898662246951575,0.0023956692053434853
3.7937729371374447,0.0030846517629897533
3.797679649579732,0.0037566066683748767
3.801586362022019,0.004399813438104092
3.805493074464306,0.005002762318279478
3.809399786906593,0.005554154284499948
3.8133064993488803,0.006042901041861259
3.8172132117911675,0.006458125024955996
3.8211199242334555,0.006789159397873657
3.8250266366757426,0.007025548054200359
3.8289333491180297,0.007157045617019287
3.832840061560317,0.007173617438910393
3.836746774002604,0.007065266715952557
3.840653486444891,0.0068268219030899885
3.8445601988871783,0.006473911162823076
3.8484669113294654,0.006025124159445664
3.8523736237717525,0.0054979350791392306
3.8562803362140397,0.0049087026299728925
3.860187048656327,0.004272670041903402
3.864093761098614,0.0036039650667751473
3.868000473540901,0.002915599978320152
3.871907185983189,0.002219471572157919
3.875813898425476,0.0015263611657960648
3.8797206108677633,0.0008459345986293627
3.8836273233100504,0.0001867422319403846
3.8875340357523376,-0.00044378105110066783
3.8914407481946247,-0.0010393158454359494
3.895347460636912,-0.0015946582241199853
3.899254173079199,-0.002105719738319656
3.903160885521486,-0.002569527417314213
3.9070675979637732,-0.0029628965729285276
3.9109743104060604,-0.0032768670792424426
3.9148810228483475,-0.003613454141990803
3.9187877352906355,-0.004053198913656939
3.9226944477329226,-0.004647698722279816
3.9266011601752098,-0.005419607071454613
3.930507872617497,-0.006362633640332368
3.934414585059784,-0.007441544283620061
3.938321297502071,-0.008592161031580621
3.9422280099443583,-0.009721362090032909
3.9461347223866454,-0.010707081840351742
3.9500414348289326,-0.011447271465514051
3.9539481472712197,-0.011813996873281843
3.957854859713507,-0.011304040102219387
3.961761572155794,-0.009536335019360884
3.965668284598082,-0.006300043462690118
3.969574997040369,-0.0015545552411437742
3.973481709482656,0.004570511865392982
3.9773884219249434,0.011775312106083919
3.9812951343672305,0.01958977175914231
3.9852018468095176,0.027373589131830914
3.9891085592518047,0.03431623456046201
3.993015271694092,0.039427794676282275
3.996921984136379,0.0418316079491618
4.000828696578666,0.04133688976367262
4.004735409020953,0.038053603130793937
4.00864212146324,0.03233800858005045
4.0125488339055275,0.024792664159512406
4.0164555463478155,0.016266425435793593
4.020362258790103,0.007851813903927808
4.02426897123239,0.000396849390841815
4.028175683674677,-0.005814546275942014
4.032082396116964,-0.010578068583292858
4.035989108559251,-0.01381215461471023
4.039895821001538,-0.015557983050323961
4.0438025334438255,-0.015979474166894207
4.047709245886113,-0.015363289837811465
4.0516159583284,-0.01405691472643429
4.055522670770687,-0.012365274949991536
4.059429383212974,-0.01056739602701277
4.063336095655262,-0.008873782322458383
4.067242808097549,-0.007426248968545634
4.071149520539836,-0.006297921864746297
4.075056232982123,-0.005493237677788277
4.0789629454244105,-0.0049479438416551915
4.082869657866698,-0.004546869099583345
4.086776370308985,-0.004244568796499653
4.090683082751272,-0.004008898772739279
4.094589795193559,-0.0038095917034580437
4.098496507635846,-0.0036221548857691315
4.102403220078133,-0.0034278702387430895
4.10630993252042,-0.0032137943034078256
4.110216644962708,-0.002972758242748552
4.114123357404996,-0.002703367841708013
4.118030069847283,-0.0024099957345589166
4.12193678228957,-0.0020937287503108148
4.125843494731857,-0.001749620997520843
4.129750207174144,-0.0013763937404773514
4.133656919616431,-0.0009731734550319556
4.137563632058718,-0.0005394918285995351
4.1414703445010055,-7.528576015823629e-05
4.145377056943293,0.0004191026397505318
4.14928376938558,0.0009429260490220921
4.153190481827867,0.0014950319339885059
4.157097194270154,0.002073862549418566
4.161003906712442,0.0026774549385179427
4.164910619154729,0.003303440932928625
4.168817331597016,0.00394924484963826
4.172724044039303,0.004615641578691694
4.1766307564815905,0.005297943666288524
4.180537468923878,0.005989159315297815
4.184444181366165,0.006682548498811533
4.188350893808452,0.007371622960144554
4.192257606250739,0.00805014621283466
4.196164318693026,0.008712133540642538
4.200071031135313,0.009351851997551784
4.2039777435776005,0.009963820407768898
4.2078844560198885,0.010542809365723415
4.211791168462176,0.011083841236067385
4.215697880904463,0.011582190153676161
4.21960459334675,0.012033382023647872
4.223511305789037,0.012433194521303552
4.227418018231324,0.012777657092187141
4.231324730673611,0.01306305095206548
4.235231443115898,0.013285909086928322
4.2391381555581855,0.013443016252988334
4.243044868000473,0.013531408976681075
4.24695158044276,0.013548375554665013
4.250858292885047,0.013491402518728804
4.254765005327335,0.013350041669970156
4.258671717769622,0.01312344529485111
4.262578430211909,0.012819644152555397
4.266485142654196,0.012446386493743142
4.2703918550964834,0.012011138060550833
4.274298567538771,0.011521082086591333
4.278205279981058,0.010983119296953867
4.282111992423345,0.010403867908204032
4.286018704865632,0.00978966362838379
4.289925417307919,0.009146559657011478
4.293832129750206,0.008480326685081793
4.297738842192493,0.0077964528950658085
4.3016455546347805,0.007100143960910958
4.3055522670770685,0.006396323048040888
4.309458979519356,0.005689630813356091
4.313365691961643,0.004984425405232954
4.31727240440393,0.004284782463524388
4.321179116846217,0.003594495119559669
4.325085829288504,0.002917073996144451
4.328992541730791,0.002255747207560735
4.332899254173078,0.0016134603595669185
4.3368059666153655,0.0009928765493977532
4.340712679057653,0.0003963763657643532
4.34461939149994,-0.0001739421111457886
4.348526103942227,-0.0007162633096688166
4.352432816384515,-0.0012290541666646147
4.356339528826802,-0.001711064127516362
4.360246241269089,-0.0021613251461312204
4.364152953711376,-0.002579151684939846
4.3680596661536635,-0.002964140714896552
4.371966378595951,-0.0033161717154792623
4.375873091038238,-0.003635407070950466
4.379779803480525,-0.003922650468045242
4.383686515922812,-0.004179873924170713
4.387593228365099,-0.004409174878579721
4.391499940807386,-0.00461257248435805
4.395406653249673,-0.004792007608424418
4.399313365691961,-0.004949342831530517
4.4032200781342485,-0.005086362448260872
4.407126790576536,-0.005204772467033056
4.411033503018823,-0.005306200610097543
4.41494021546111,-0.005392196313537744
4.418846927903397,-0.005464230727270007
4.422753640345684,-0.005523696715043622
4.426660352787971,-0.005571908854440814
4.4305670652302585,-0.005610103436876746
4.434473777672546,-0.005639438467599522
4.438380490114833,-0.005660993665690185
4.44228720255712,-0.0056757704640627085
4.446193914999407,-0.005684692009464015
4.450100627441695,-0.00568860316247396
4.454007339883982,-0.005688270497505334
4.457914052326269,-0.005684382302803871
4.461820764768556,-0.005677548580448244
4.4657274772108435,-0.005668301046350058
4.469634189653131,-0.005657093130253862
4.473540902095418,-0.0056442999757371414
4.477447614537705,-0.005630218440210324
4.481354326979992,-0.005615067094916761
4.485261039422279,-0.005598986224932764
4.489167751864566,-0.0055820378291675625
4.493074464306853,-0.005564205620363343
4.496981176749141,-0.005545395025095201
4.500887889191429,-0.005525858010033604
4.504794601633716,-0.005506101856973802
4.508701314076003,-0.005486155702870555
4.51260802651829,-0.005466044710113075
4.516514738960577,-0.005445792904552461
4.520421451402864,-0.005425423175501689
4.524328163845151,-0.0054049572757356185
4.5282348762874385,-0.005384415821490986
4.532141588729726,-0.005363818292466413
4.536048301172013,-0.005343183031822399
4.5399550136143,-0.005322527246181327
4.543861726056588,-0.0053018670056274525
4.547768438498875,-0.00528121724370693
4.551675150941162,-0.005260591757427778
4.555581863383449,-0.005240003207259901
4.559488575825736,-0.005219463117135086
4.5633952882680235,-0.005198981874446998
4.567302000710311,-0.005178568730051187
4.571208713152598,-0.005158231798265079
4.575115425594885,-0.005137978056867984
4.579022138037172,-0.005117813347101092
4.582928850479459,-0.005097742373667474
4.586835562921746,-0.005077768704732083
4.5907422753640335,-0.005057894771921751
4.5946489878063215,-0.005038121870325185
4.598555700248609,-0.005018450158492991
4.602462412690896,-0.0049988786584376395
4.606369125133183,-0.004979405255633486
4.61027583757547,-0.0049600266990167665
4.614182550017757,-0.004940738600985601
4.618089262460044,-0.004921535437399987
4.621995974902331,-0.004902410547581804
4.6259026873446185,-0.004883356134314814
4.629809399786906,-0.004864363263844655
4.633716112229193,-0.004845421865878853
4.63762282467148,-0.004826520733586809
4.641529537113768,-0.004807436721372265
4.645436249556055,-0.004787732986966552
4.649342961998342,-0.004767774184331701
4.653249674440629,-0.004747878465068758
4.657156386882916,-0.004728261027469135
4.661063099325204,-0.004709034116514604
4.664969811767491,-0.004690207023877305
4.668876524209778,-0.0046716860879197335
4.672783236652065,-0.004653274693694754
4.676689949094352,-0.004634673272945592
4.680596661536639,-0.004615479304105836
4.684503373978926,-0.004595187312299436
4.688410086421214,-0.0045731888693407025
4.6923167988635015,-0.004548772593734321
4.696223511305789,-0.004521124150675328
4.700130223748076,-0.004489326252049126
4.704036936190363,-0.00445235865643148
4.70794364863265,-0.004409098169088521
4.711850361074937,-0.004358318641976739
4.715757073517224,-0.004300483020238377
4.719663785959511,-0.00423850758926447
4.7235704984017985,-0.004165387775953061
4.727477210844086,-0.004073952058233195
4.731383923286373,-0.003957843359143407
4.73529063572866,-0.00381151904683172
4.739197348170948,-0.0036302509345556015
4.743104060613235,-0.0034101252806821337
4.747010773055522,-0.0031480427886877685
4.750917485497809,-0.0028417186071584832
4.7548241979400965,-0.002489682329789744
4.758730910382384,-0.002091277995386505
4.762637622824671,-0.0016466640878632093
4.766544335266958,-0.0011568135362437881
4.770451047709245,-0.0006235137146616606
4.774357760151532,-4.936644235973599e-05
4.778264472593819,0.0005622120163095911
4.782171185036106,0.0012069909518844322
4.786077897478394,0.0018799252097935724
4.7899846099206815,0.00257587891756538
4.793891322362969,0.0032857507551413466
4.797798034805256,0.003988406965368824
4.801704747247543,0.004663634498123518
4.80561145968983,0.005293414488280095
4.809518172132117,0.005861922255712179
4.813424884574404,0.006355527305292354
4.8173315970166914,0.006762793326892156
4.821238309458979,0.00707447819538209
4.825145021901266,0.0072835339706316116
4.829051734343553,0.007385106897509135
4.832958446785841,0.007376537405882024
4.836865159228128,0.007257360110616613
4.840771871670415,0.0070293038115782054
4.844678584112702,0.006696291493631052
4.848585296554989,0.006263881700294795
4.8524920089972765,0.00573809779695834
4.856398721439564,0.005138174291884402
4.860305433881851,0.004484307115289895
4.864212146324138,0.003794783408739194
4.868118858766425,0.003085981525144145
4.872025571208712,0.002372371028764056
4.875932283650999,0.001666512695205703
4.879838996093286,0.0009790585114233235
4.883745708535574,0.0003187516757184785
4.887652420977862,-0.000307573402259358
4.891559133420149,-0.0008949911015137058
4.895465845862436,-0.0014404845897004583
4.899372558304723,-0.0019429458231280542
4.90327927074701,-0.0024031755467574566
4.907185983189297,-0.0028230286783686954
4.911092695631584,-0.003196081547048007
4.9149994080738715,-0.003579857243586635
4.918906120516159,-0.004038376582724276
4.922812832958446,-0.004616281085322264
4.926719545400733,-0.005338832978363576
4.930626257843021,-0.006211915194953043
4.934532970285308,-0.00722203137431652
4.938439682727595,-0.008336305861802083
4.942346395169882,-0.009507733032929837
4.946253107612169,-0.01059800976501771
4.9501598200544565,-0.011291057365185486
4.954066532496744,-0.01130179083481038
4.957973244939031,-0.0103972050791889
4.961879957381318,-0.008396374907536855
4.965786669823605,-0.005170455032989351
4.969693382265892,-0.0006426800726007983
4.973600094708179,0.005211635452655091
4.977506807150467,0.012428967345954795
4.9814135195927545,0.020483093808424634
4.985320232035042,0.02825932338251835
4.989226944477329,0.03482787682651617
4.993133656919616,0.03946308807195627
4.997040369361903,0.041643404223634745
5.00094708180419,0.04105138555960572
5.004853794246477,0.03757370553118124
5.008760506688764,0.03143369753101055
5.0126672191310515,0.023624303269072888
5.016573931573339,0.01517875717098922
5.020480644015626,0.006931360049096086
5.024387356457913,-0.0004813232438862919
5.0282940689002,-0.006620463814854011
5.032200781342487,-0.0112449687303195
5.036107493784774,-0.01431148101641156
5.040014206227061,-0.01587886982181677
5.0439209186693486,-0.016076033618880523
5.047827631111636,-0.015307273036356536
5.051734343553925,-0.01393112086681962
5.055641055996212,-0.012247571900194317
5.059547768438499,-0.010498082923750936
5.063454480880786,-0.00886557272210797
5.067361193323073,-0.007474422077231545
5.07126790576536,-0.0063904737684354965
5.075174618207647,-0.005621032572381265
5.0790813306499345,-0.00511486526307799
5.082988043092222,-0.004762200611882501
5.086894755534509,-0.004466007301505008
5.090801467976796,-0.004223963069371843
5.094708180419083,-0.004014390270828422
5.09861489286137,-0.0038186981515376563
5.102521605303657,-0.0036214857622616833
5.106428317745944,-0.003410541958861867
5.1103350301882315,-0.003176845402298799
5.114241742630519,-0.002914564558632294
5.118148455072806,-0.002621057699021394
5.122055167515093,-0.002296872899724368
5.12596187995738,-0.001945748042098707
5.129868592399667,-0.0015695827981809457
5.133775304841954,-0.0011639898511208707
5.1376820172842415,-0.000728194209691619
5.141588729726529,-0.00026192548858165526
5.145495442168816,0.00023461994070384526
5.149402154611105,0.0007607789498432467
5.153308867053392,0.0013154216536974748
5.157215579495679,0.0018969514103114584
5.161122291937966,0.002503304820913186
5.165029004380253,0.003131951729913933
5.16893571682254,0.0037798952249082658
5.172842429264827,0.0044436716366740465
5.1767491417071145,0.005119350539172421
5.180655854149402,0.005802534749547828
5.184562566591689,0.006488804715059056
5.188469279033976,0.007176963870189853
5.192375991476263,0.007860131608077393
5.19628270391855,0.0085302427780671
5.200189416360837,0.009179763499913184
5.204096128803124,0.009801691163778653
5.208002841245412,0.010389554430235298
5.211909553687699,0.010937413230263707
5.215816266129986,0.011439858765253257
5.219722978572273,0.011892013507002116
5.22362969101456,0.01228953119771724
5.227536403456847,0.012628596850014384
5.231443115899134,0.012905926746918085
5.2353498283414215,0.013118768441861677
5.239256540783709,0.013264900758687283
5.2431632532259975,0.013342633791645835
5.247069965668285,0.013350808905396966
5.250976678110572,0.013288798735009226
5.254883390552859,0.0131565071859599
5.258790102995146,0.012954369434135065
5.262696815437433,0.012683351925829593
5.26660352787972,0.012340350726040658
5.270510240322007,0.011926690267639798
5.274416952764295,0.011450649501205864
5.278323665206582,0.010920165787960278
5.282230377648869,0.010342833545613609
5.286137090091156,0.009725904248365582
5.290043802533443,0.00907628642690507
5.29395051497573,0.0084005456684101
5.297857227418017,0.0077049046165478495
5.3017639398603045,0.006995242971474649
5.305670652302592,0.0062770974898359805
5.309577364744879,0.0055556619847664775
5.313484077187166,0.0048357873258899255
5.317390789629453,0.004121981439319269
5.32129750207174,0.0034184093076565867
5.325204214514027,0.0027288929699931276
5.329110926956314,0.002056911521909288
5.3330176393986015,0.0014056011154746084
5.336924351840889,0.0007777549592477805
5.3408310642831776,0.00017582331827639512
5.344737776725465,-0.00039808648590199634
5.348644489167752,-0.0009422100752615285
5.352551201610039,-0.001455126015286889
5.356457914052326,-0.001935755814973631
5.360364626494613,-0.002383363926828133
5.3642713389369,-0.002797557746867645
5.3681780513791875,-0.0031782876146202524
5.372084763821475,-0.0035256635808991084
5.375991476263762,-0.003839589182836253
5.379898188706049,-0.004121944771029305
5.383804901148336,-0.00437484409901697
5.387711613590623,-0.004600325928469532
5.39161832603291,-0.004800354029188857
5.395525038475197,-0.004976817179108391
5.3994317509174845,-0.005131529164293164
5.403338463359772,-0.005266228778939784
5.407245175802059,-0.005382579825376441
5.411151888244346,-0.005482171114062908
5.415058600686633,-0.0055665164635905345
5.41896531312892,-0.005637054700682257
5.422872025571207,-0.005695149660192586
5.426778738013494,-0.00574209018510762
5.4306854504557815,-0.0057790901265450355
5.434592162898069,-0.005807288343754087
5.438498875340358,-0.005827748704115622
5.442405587782645,-0.005841460083142045
5.446312300224932,-0.005849336364477362
5.450219012667219,-0.005852216439897159
5.454125725109506,-0.005850864209308599
5.458032437551793,-0.005845968580750422
5.46193914999408,-0.005838143470392954
5.4658458624363675,-0.0058279278025381
5.469752574878655,-0.0058157855096193515
5.473659287320942,-0.005802105532201771
5.477565999763229,-0.0057872018189820094
5.481472712205516,-0.005771313326788298
5.485379424647803,-0.005754604020580447
5.48928613709009,-0.005737162873449846
5.493192849532377,-0.0057190038666194674
5.4970995619746645,-0.0057000659894438765
5.501006274416952,-0.005680213239409194
5.504912986859239,-0.005659706809158153
5.508819699301526,-0.005639046931391397
5.512726411743813,-0.0056182559513246215
5.5166331241861,-0.005597353964593765
5.520539836628387,-0.005576360142376665
5.5244465490706745,-0.00555529273139305
5.528353261512962,-0.0055341690539045495
5.5322599739552505,-0.0055130055077146755
5.536166686397538,-0.0054918175661688665
5.540073398839825,-0.005470619778154428
5.543980111282112,-0.005449425768100571
5.547886823724399,-0.0054282482359784
5.551793536166686,-0.00540709895730092
5.555700248608973,-0.005385988783123028
5.55960696105126,-0.005364927640041518
5.5635136734935475,-0.0053439245301950804
5.567420385935835,-0.005322987531264301
5.571327098378122,-0.005302123796471662
5.575233810820409,-0.005281339554581541
5.579140523262696,-0.005260640109900212
5.583047235704983,-0.005240029842275843
5.58695394814727,-0.0052195122070985
5.590860660589557,-0.005199089735300145
5.594767373031845,-0.005178764033354635
5.598674085474132,-0.005158535783277722
5.602580797916419,-0.005138404742627055
5.606487510358706,-0.00511836974450218
5.610394222800993,-0.005098428697544536
5.61430093524328,-0.005078578585937461
5.618207647685567,-0.005058815469406187
5.6221143601278545,-0.005039134483217841
5.626021072570142,-0.00501952983818145
5.6299277850124305,-0.004999994820647922
5.633834497454718,-0.004980521792510091
5.637741209897005,-0.004961102191202662
5.641647922339292,-0.004941726529702243
5.645554634781579,-0.004922370809602171
5.649461347223866,-0.004902274325590279
5.653368059666153,-0.004881454994076691
5.65727477210844,-0.004860429123286487
5.661181484550728,-0.0048395661149685945
5.665088196993015,-0.00481908846439578
5.668994909435302,-0.004799071760364655
5.672901621877589,-0.004779444685195675
5.676808334319876,-0.004759989014733138
5.680715046762163,-0.004740339618345184
5.68462175920445,-0.004719984458923795
5.6885284716467375,-0.0046982645928848
5.692435184089025,-0.004674374170167867
5.696341896531312,-0.004647360434236509
5.700248608973599,-0.004616123722078082
5.704155321415886,-0.004579417464203784
5.708062033858173,-0.004535848184648657
5.71196874630046,-0.004483875500971585
5.715875458742747,-0.004421812124255298
5.7197821711850345,-0.004347823859106365
5.723688883627322,-0.004261394591204414
5.7275955960696106,-0.004162141943771212
5.731502308511898,-0.004042817806138729
5.735409020954185,-0.0038966727075106723
5.739315733396472,-0.003717902949325199
5.743222445838759,-0.003501650605254883
5.747129158281046,-0.003244003521206711
5.751035870723333,-0.0029419953153220837
5.7549425831656205,-0.002593605377976817
5.758849295607908,-0.0021977588717811375
5.762756008050195,-0.0017543267315796897
5.766662720492482,-0.001264125664451529
5.770569432934769,-0.000728918149710127
5.774476145377056,-0.00015141243890336772
5.778382857819343,0.0004647374441864513
5.78228957026163,0.0011149317035426187
5.7861962827039175,0.0017937288814895542
5.790102995146205,0.0024997572891181873
5.794009707588492,0.0032169182758850935
5.797916420030779,0.003923158558554017
5.801823132473066,0.0045986398157435195
5.805729844915353,0.005225738687926974
5.80963655735764,0.005789046777432573
5.813543269799927,0.006275370648443325
5.8174499822422145,0.006673731826997048
5.8213566946845035,0.006975366800986496
5.825263407126791,0.0071737270201588455
5.829170119569078,0.007264478896116526
5.833076832011365,0.007245503802316621
5.836983544453652,0.0071168980740710305
5.840890256895939,0.0068809730085464755
5.844796969338226,0.00654225486476448
5.848703681780513,0.0061074848636013925
5.8526103942228005,0.005584603321945931
5.856517106665088,0.0049843702884077795
5.860423819107375,0.0043276280500067765
5.864330531549662,0.0036340788144735665
5.868237243991949,0.002921247549301619
5.872143956434236,0.002204481981747237
5.876050668876523,0.0014969525988295512
5.87995738131881,0.0008096526473305235
5.8838640937610975,0.00015139813379494264
5.887770806203385,-0.00047117217546957003
5.891677518645672,-0.0010535967543925636
5.895584231087959,-0.001593591317140759
5.899490943530246,-0.002091048818118049
5.903397655972533,-0.0025480394519654913
5.90730436841482,-0.00296881065356132
5.9112110808571074,-0.003349126899863703
5.915117793299395,-0.0037311793190352863
5.9190245057416835,-0.004186755150110005
5.922931218183971,-0.004765535039598165
5.926837930626258,-0.0054949056247181206
5.930744643068545,-0.006379959533395506
5.934651355510832,-0.0074034953842634305
5.938558067953119,-0.00852601778666247
5.942464780395406,-0.009690093260979927
5.946371492837693,-0.010754633953200515
5.9502782052799805,-0.011409082590116104
5.954184917722268,-0.011371204495932954
5.958091630164555,-0.010409537701044172
5.961998342606842,-0.00834339294202973
5.965905055049129,-0.0050428536616564535
5.969811767491416,-0.00042877600887802035
5.973718479933703,0.0055272111611650455
5.97762519237599,0.012875960922158758
5.981531904818278,0.02091702717828199
5.985438617260565,0.02859186758323297
5.989345329702852,0.035023414457280695
5.993252042145139,0.03951642168530649
5.997158754587426,0.04155746471680396
6.001065467029713,0.04081494056587903
6.004972179472,0.037139099434843684
6.0088788919142875,0.030826161422579896
6.012785604356575,0.022944567462565436
6.0166923167988635,0.014501765714810627
6.020599029241151,0.006309660522526468
6.024505741683438,-0.001015387587898972
6.028412454125725,-0.007052561906884892
6.032319166568012,-0.011576589541661624
6.036225879010299,-0.014556301365732029
6.040132591452586,-0.01598138217035611
6.044039303894873,-0.01611177662111771
6.047946016337161,-0.015339300913857035
6.051852728779448,-0.014000232629327381
6.055759441221735,-0.012375310733195132
6.059666153664022,-0.010689735576039772
6.063572866106309,-0.009113168893353868
6.067479578548596,-0.007759733805543109
6.071386290990883,-0.00668801481792622
6.0752930034331705,-0.005901057820735075
6.079199715875458,-0.005345972798433637
6.083106428317745,-0.0049451467994296346
6.087013140760032,-0.004650583071449789
6.090919853202319,-0.004423450508578609
6.094826565644606,-0.004231360732430046
6.098733278086893,-0.004048368092147487
6.10263999052918,-0.0038549696644037566
6.1065467029714675,-0.003638105253401118
6.110453415413756,-0.003391157390871151
6.1143601278560435,-0.0031139513360752217
6.118266840298331,-0.0028127550758038056
6.122173552740618,-0.0024911067349274825
6.126080265182905,-0.0021416166309333067
6.129986977625192,-0.0017629421641247253
6.133893690067479,-0.0013542156240504337
6.137800402509766,-0.0009149859784682694
6.1417071149520535,-0.0004452188733452128
6.145613827394341,5.470336714261375e-05
6.149520539836628,0.0005839817406099457
6.153427252278915,0.0011414005664623765
6.157333964721202,0.001725327485896358
6.161240677163489,0.0023337134618991976
6.165147389605776,0.0029640927792490648
6.169054102048063,0.00361358304451498
6.1729608144903505,0.004280823352761276
6.176867526932638,0.004964278066508522
6.180774239374925,0.005656872447551634
6.184680951817212,0.006351649358251638
6.188587664259499,0.007041927706255325
6.192494376701786,0.007721302444495259
6.196401089144073,0.008383644571189763
6.20030780158636,0.009023101129842935
6.2042145140286475,0.009634095209244638
6.2081212264709364,0.01021132594347075
6.212027938913224,0.010749768511882142
6.215934651355511,0.01124467413912625
6.219841363797798,0.011691570095136002
6.223748076240085,0.012086259695130096
6.227654788682372,0.012424822299612998
6.231561501124659,0.012703613314374938
6.235468213566946,0.012919264190491919
6.2393749260092335,0.013068682424325705
6.243281638451521,0.013149051557523828
6.247188350893808,0.013157831177019588
6.251095063336095,0.013092513354928031
6.255001775778382,0.01294205224337284
6.258908488220669,0.012707309740699533
6.262815200662956,0.012396280499878088
6.266721913105243,0.012016677105814803
6.2706286255475305,0.011575930075352306
6.274535337989818,0.011081187857269552
6.278442050432105,0.010539316832281816
6.282348762874392,0.00995690131304071
6.286255475316679,0.009340243544134163
6.290162187758966,0.008695363702086433
6.294068900201253,0.008027999895358105
6.29797561264354,0.00734360816434609
6.301882325085828,0.006647362481383624
6.3057890375281165,0.005944154750739951
6.309695749970404,0.005238594808621601
6.313602462412691,0.004535010423170468
6.317509174854978,0.0038374472944651024
6.321415887297265,0.003149669054520363
6.325322599739552,0.002475157267287446
6.329229312181839,0.001817111428653876
6.333136024624126,0.0011784489664435002
6.3370427370664135,0.0005618052404164839
6.340949449508701,-3.046645773067437e-05
6.344856161950988,-0.0005962949043651321
6.348762874393275,-0.0011338909439177602
6.352669586835562,-0.0016417474888830632
6.356576299277849,-0.0021186395198192504
6.360483011720136,-0.002563624085348184
6.364389724162423,-0.0029760403021554076
6.368296436604711,-0.0033555093549901306
6.372203149046998,-0.003701934496665272
6.376109861489285,-0.004015510968971383
6.380016573931572,-0.004297298605978754
6.383923286373859,-0.004549371338505914
6.387829998816146,-0.004773814372701311
6.391736711258433,-0.004972634690628431
6.3956434237007205,-0.0051477610502658035
6.399550136143009,-0.005301043985507065
6.4034568485852965,-0.005434255806160687
6.407363561027584,-0.0055490905979504
6.411270273469871,-0.005647164222514899
6.415176985912158,-0.005730014317407923
6.419083698354445,-0.0057991002960982516
6.422990410796732,-0.005855803347969703
6.426897123239019,-0.005901426438321143
6.430803835681306,-0.0059371943083664745
6.4347105481235936,-0.005964253475234644
6.438617260565881,-0.005983672231969642
6.442523973008168,-0.005996440647530495
6.446430685450455,-0.006003470566791276
6.450337397892742,-0.006005595610541098
6.454244110335029,-0.006003571175484119
6.458150822777316,-0.00599807443423953
6.4620575352196035,-0.0059897043353415716
6.465964247661891,-0.005978981603239527
6.469870960104178,-0.005966348738297714
6.473777672546465,-0.0059521700167955
6.477684384988752,-0.005936731490927286
6.481591097431039,-0.005920240988802524
6.485497809873326,-0.005902828114445698
6.489404522315613,-0.0058845442477963444
6.4933112347579005,-0.0058653625447090295
6.497217947200189,-0.005845185672770254
6.5011246596424765,-0.00582445068687291
6.505031372084764,-0.005803505110511446
6.508938084527051,-0.005782375292120948
6.512844796969338,-0.0057610864350759365
6.516751509411625,-0.005739662597690369
6.520658221853912,-0.005718126693217638
6.524564934296199,-0.005696500489850573
6.5284716467384865,-0.005674804610721438
6.532378359180774,-0.005653058533901935
6.536285071623061,-0.0056312805924031975
6.540191784065348,-0.0056094879741758
6.544098496507635,-0.005587696722109748
6.548005208949922,-0.005565921734034488
6.551911921392209,-0.005544176762718898
6.555818633834496,-0.0055224744158712934
6.5597253462767835,-0.005500826156139425
6.563632058719071,-0.00547924230111048
6.567538771161358,-0.005457732023311081
6.571445483603645,-0.005436303350207288
6.575352196045932,-0.005414963164204593
6.579258908488219,-0.005393717202647927
6.583165620930506,-0.005372570057821658
6.587072333372793,-0.005351525176949585
6.5909790458150805,-0.0053305848621949484
6.5948857582573694,-0.005309750270660409
6.598792470699657,-0.005289021414388098
6.602699183141944,-0.00526839716035955
6.606605895584231,-0.005247875230495745
6.610512608026518,-0.0052274522016570995
6.614419320468805,-0.005207123505643468
6.618326032911092,-0.005186883429194138
6.622232745353379,-0.0051667251139878335
6.6261394577956665,-0.005146640556642715
6.630046170237954,-0.005126620608716376
6.633952882680241,-0.005106654976705851
6.637859595122528,-0.005086732222047607
6.641766307564815,-0.005066599062248557
6.645673020007102,-0.0050458660270972745
6.649579732449389,-0.00502490722217729
6.653486444891676,-0.005004031497607155
6.6573931573339635,-0.004983444447142623
6.661299869776251,-0.0049632484081766496
6.665206582218538,-0.00494344246173939
6.669113294660825,-0.004923922432498201
6.673020007103112,-0.004904480888757642
6.676926719545399,-0.0048848071424594745
6.680833431987686,-0.004864487249182657
6.684740144429973,-0.004843004008143355
6.688646856872262,-0.004819736962194919
6.6925535693145495,-0.004793962397827938
6.696460281756837,-0.004764853345170167
6.700366994199124,-0.0047314795779865755
6.704273706641411,-0.004692807613679332
6.708180419083698,-0.004647700713287808
6.712087131525985,-0.004594918881488576
6.715993843968272,-0.004535757735930673
6.719900556410559,-0.0044716940243192844
6.7238072688528465,-0.004395320038683745
6.727713981295134,-0.0042996679920893925
6.731620693737421,-0.004178569165830496
6.735527406179708,-0.004026653909430253
6.739434118621995,-0.00383935164064079
6.743340831064282,-0.0036128908454431613
6.747247543506569,-0.003344299078047352
6.751154255948856,-0.0030314029608922727
6.755060968391144,-0.002672828184645767
6.758967680833431,-0.0022679995082046066
6.762874393275718,-0.001817140758694488
6.766781105718005,-0.0013212748314700416
6.770687818160292,-0.0007822236901148245
6.774594530602579,-0.00020260836644132342
6.778501243044866,0.0004141510395090477
6.7824079554871535,0.0010638353594659448
6.786314667929442,0.0017414263569304061
6.7902213803717295,0.0024420954303735944
6.794128092814017,0.0031531345867941325
6.798034805256304,0.0038532547304809253
6.801941517698591,0.004523026989271072
6.805848230140878,0.005145121782080239
6.809754942583165,0.005704308818902659
6.813661655025452,0.006187457100811132
6.817568367467739,0.006583534919957025
6.8214750799100266,0.006883609859570268
6.825381792352314,0.007080848793959362
6.829288504794601,0.007170517888511372
6.833195217236888,0.007149982599691932
6.837101929679175,0.007018707675045238
6.841008642121462,0.00677825715319406
6.844915354563749,0.0064322943638397264
6.8488220670060365,0.0059846686365601
6.852728779448324,0.005447855160832264
6.856635491890611,0.004842126900589347
6.860542204332898,0.004186169275247968
6.864448916775185,0.0034970062995562986
6.868355629217472,0.0027900005835940576
6.872262341659759,0.002078853332772513
6.876169054102046,0.0013756043478344816
6.8800757665443335,0.0006906320248543261
6.883982478986622,3.265335523767402e-05
6.8878891914289095,-0.0005912760742774166
6.891795903871197,-0.0011757620816222397
6.895702616313484,-0.0017170718893962256
6.899609328755771,-0.0022131341248672783
6.903516041198058,-0.002663538819971733
6.907422753640345,-0.003026304898038906
6.911329466082632,-0.003335453850484856
6.9152361785249195,-0.0036907379114978914
6.919142890967207,-0.004163791472591326
6.923049603409494,-0.0047981156631902114
6.926956315851781,-0.0056090783506313364
6.930863028294068,-0.006583914140163231
6.934769740736355,-0.007681724374946158
6.938676453178642,-0.008833477136052124
6.942583165620929,-0.009942007242464874
6.9464898780632165,-0.010882016251079879
6.950396590505504,-0.011555103427184734
6.954303302947791,-0.011707098403183855
6.958210015390078,-0.010879544231202593
6.962116727832365,-0.00876196261186042
6.966023440274652,-0.005200549371441898
6.969930152716939,-0.00019817446189667777
6.973836865159226,0.006085618039160495
6.977743577601515,0.013334609928453239
6.981650290043802,0.02107590887702983
6.98555700248609,0.02867994843028328
6.989463714928377,0.035320340004394525
6.993370427370664,0.03999151160160409
6.997277139812951,0.04200259664001699
7.001183852255238,0.04104152656904679
7.005090564697525,0.037171764652937665
7.008997277139812,0.03083230597076434
7.0129039895820995,0.022837677416432108
7.016810702024387,0.014339552085937733
7.020717414466674,0.0061921757521851
7.024624126908961,-0.0010758287482547334
7.028530839351248,-0.0070709273778520945
7.032437551793535,-0.01156109469607574
7.036344264235822,-0.01447581385939286
7.040250976678109,-0.015906076621269125
7.0441576891203965,-0.01609777786575369
7.048064401562684,-0.015303502587299525
7.051971114004971,-0.013870844750275162
7.055877826447258,-0.012135163895935934
7.059784538889545,-0.010359560893652961
7.063691251331832,-0.008734877940913151
7.067597963774119,-0.00737969856331922
7.071504676216406,-0.006340347614589651
7.075411388658695,-0.005590891276558447
7.0793181011009825,-0.005047529451316885
7.08322481354327,-0.004652430990008618
7.087131525985557,-0.004362150604501606
7.091038238427844,-0.00413874126101948
7.094944950870131,-0.003950356599015887
7.098851663312418,-0.0037712509311744954
7.102758375754705,-0.0035817792434089924
7.106665088196992,-0.00336839719486308
7.1105718006392795,-0.003123661117910487
7.114478513081567,-0.0028462280181549508
7.118385225523854,-0.002540855574430243
7.122291937966141,-0.0022161383343145776
7.126198650408428,-0.0018657196783755142
7.130105362850715,-0.0014861961711273354
7.134012075293002,-0.0010766522169308288
7.137918787735289,-0.0006366040025344423
7.141825500177577,-0.00016599949707428365
7.145732212619864,0.0003347815479258823
7.149638925062151,0.0008649275985546283
7.153545637504438,0.0014231953385128704
7.157452349946725,0.0020079096691138624
7.161359062389012,0.002616963709283202
7.165265774831299,0.0032478187955588237
7.1691724872735865,0.0038975044820910086
7.173079199715875,0.004562742596004909
7.1769859121581625,0.005243500059845647
7.18089262460045,0.00593483373962088
7.184799337042737,0.006629286451882552
7.188706049485024,0.0073197357262327414
7.192612761927311,0.007999393805323652
7.196519474369598,0.008661807644857617
7.200426186811885,0.0093008589135871
7.204332899254172,0.009910763993314694
7.2082396116964595,0.010486073978893118
7.212146324138747,0.011021674678225225
7.216053036581034,0.011512786612263988
7.219959749023321,0.011954965015012519
7.223866461465608,0.012344099833524053
7.227773173907895,0.012676415727901959
7.231679886350182,0.012948472071299729
7.2355865987924695,0.013157162949920987
7.239493311234757,0.013299717163019488
7.243400023677044,0.013373698222899109
7.247306736119331,0.013377004354913867
7.251213448561618,0.013307868497467897
7.255120161003905,0.01316369148020764
7.259026873446192,0.012939748301105699
7.262933585888479,0.012641605749074148
7.266840298330768,0.012276028598970593
7.270747010773055,0.011849595308916633
7.2746537232153425,0.011368698020296861
7.27856043565763,0.010839542557759499
7.282467148099917,0.01026814842921624
7.286373860542204,0.009660348825842267
7.290280572984491,0.009021790622076233
7.294187285426778,0.008357934375620268
7.298093997869065,0.007674054327439987
7.3020007103113524,0.006975238401764478
7.30590742275364,0.0062663882060863055
7.309814135195927,0.005552219031161518
7.313720847638214,0.004837259851009634
7.317627560080501,0.004125853322913663
7.321534272522788,0.003422155787420075
7.325440984965075,0.002730137268338831
7.329347697407362,0.0020535814727433606
7.3332544098496495,0.0013960857909705894
7.337161122291937,0.0007610612966208966
7.341067834734224,0.00015173274655815548
7.344974547176511,-0.0004288614190902842
7.348881259618798,-0.0009778690769335994
7.352787972061085,-0.0014926244203174802
7.356694684503372,-0.001970663017102653
7.360601396945659,-0.002411256169158113
7.364508109387948,-0.002816069039801754
7.368414821830235,-0.003186847009046775
7.372321534272523,-0.00352530287905836
7.37622824671481,-0.003833116874152928
7.380134959157097,-0.004111936640798324
7.384041671599384,-0.004363377247613818
7.387948384041671,-0.004589021185370109
7.391855096483958,-0.004790418366989315
7.395761808926245,-0.0049690861275449895
7.3996685213685325,-0.005126509224262107
7.40357523381082,-0.005264139836517068
7.407481946253107,-0.005383397565837703
7.411388658695394,-0.0054856694359032634
7.415295371137681,-0.00557230989254443
7.419202083579968,-0.0056446408037433065
7.423108796022255,-0.005703951459633428
7.427015508464542,-0.005751498572499753
7.4309222209068295,-0.005788506276778665
7.434828933349117,-0.005816166129057975
7.438735645791404,-0.005835637108076918
7.442642358233691,-0.00584804561472616
7.446549070675978,-0.005854485472047791
7.450455783118265,-0.0058560179252353205
7.454362495560552,-0.005853671641633695
7.458269208002839,-0.005848442710739281
7.462175920445128,-0.005840987231060364
7.4660826328874155,-0.005831289314665708
7.469989345329703,-0.005819579418345737
7.47389605777199,-0.005806085015027704
7.477802770214277,-0.0057910209991411015
7.481709482656564,-0.005774589686617656
7.485616195098851,-0.005756980814891333
7.489522907541138,-0.005738371542898335
7.493429619983425,-0.0057189264510770985
7.4973363324257125,-0.0056987975413683
7.501243044868,-0.0056781242372148525
7.505149757310287,-0.005657033383561905
7.509056469752574,-0.005635639246856843
7.512963182194861,-0.0056140435150492905
7.516869894637148,-0.005592335297591108
7.520776607079435,-0.005570591125436391
7.524683319521722,-0.005548874951041475
7.5285900319640096,-0.00552723814836493
7.532496744406297,-0.0055057195128675645
7.536403456848584,-0.005484345261512422
7.540310169290871,-0.0054631290327647845
7.544216881733158,-0.005442071886592171
7.548123594175445,-0.005421162304464337
7.552030306617732,-0.005400376189353274
7.555937019060021,-0.005379676865733202
7.559843731502308,-0.005359015079580606
7.5637504439445955,-0.005338328998374181
7.567657156386883,-0.0053175266955827446
7.57156386882917,-0.005296464347131479
7.575470581271457,-0.005275211577353313
7.579377293713744,-0.005253864181139291
7.583284006156031,-0.0052325081461181405
7.587190718598318,-0.005211219652656273
7.591097431040605,-0.005190065073857781
7.5950041434828925,-0.005169100975564441
7.59891085592518,-0.005148374116355711
7.602817568367467,-0.005127921447548733
7.606724280809754,-0.005107770113198329
7.610630993252041,-0.005087937450097009
7.614537705694328,-0.005068430987774959
7.618444418136615,-0.0050492484485000514
7.6223511305789025,-0.005030377747277843
7.62625784302119,-0.0050117969918515685
7.630164555463477,-0.0049934744827021494
7.634071267905764,-0.004975368713048187
7.637977980348051,-0.004957428368845969
7.641884692790338,-0.0049395923287894605
7.645791405232625,-0.004921789664310314
7.649698117674912,-0.004903939639577862
7.653604830117201,-0.0048859517114991135
7.657511542559488,-0.0048677255297187826
7.6614182550017755,-0.004849150936619241
7.665324967444063,-0.004830107967320555
7.66923167988635,-0.004810466849680471
7.673138392328637,-0.004790088004294418
7.677045104770924,-0.004768822044495507
7.680951817213211,-0.004746509776354534
7.684858529655498,-0.004722982198679976
7.6887652420977854,-0.004698060503017992
7.692671954540073,-0.004671574748496478
7.69657866698236,-0.004643570119321996
7.700485379424647,-0.004612738785644057
7.704392091866934,-0.0045771792054524005
7.708298804309221,-0.004534835845449129
7.712205516751508,-0.004483499181048698
7.716112229193795,-0.004420805696377925
7.7200189416360825,-0.004344237884275982
7.72392565407837,-0.004251124246294403
7.727832366520657,-0.004138639292697074
7.731739078962944,-0.004003803542460246
7.735645791405231,-0.0038434835232725225
7.739552503847518,-0.0036543917715348676
7.743459216289805,-0.0034330868323606024
7.747365928732092,-0.0031759732595754066
7.751272641174381,-0.0028793016157171725
7.755179353616668,-0.0025391684720365644
7.759086066058956,-0.0021515164084962095
7.762992778501243,-0.0017118463842196888
7.76689949094353,-0.0012117304878019217
7.770806203385817,-0.0006559569013973336
7.774712915828104,-5.4230519082184734e-05
7.778619628270391,0.0005835272939633731
7.782526340712678,0.0012471787014553
7.7864330531549655,0.0019263693960056647
7.790339765597253,0.0026105285991226447
7.79424647803954,0.0032888690612105304
7.798153190481827,0.003950387061569719
7.802059902924114,0.00458386240839672
7.805966615366401,0.00517785843878415
7.809873327808688,0.00572072201872074
7.813780040250975,0.006200583543091326
7.8176867526932625,0.006605356935676853
7.82159346513555,0.006922739649154385
7.825500177577837,0.007140212665097087
7.829406890020124,0.007245040493974231
7.833313602462411,0.0072242013706724055
7.837220314904698,0.007070956159708558
7.841127027346985,0.006798716947258657
7.845033739789274,0.006423697680146325
7.848940452231561,0.005961428516744913
7.8528471646738485,0.00542675582697647
7.856753877116136,0.004833842192312386
7.860660589558423,0.004196166405773237
7.86456730200071,0.003526523471928797
7.868474014442997,0.002837024606898028
7.872380726885284,0.002139097238349084
7.876287439327571,0.0014434850054993098
7.880194151769858,0.0007602477591152441
7.8841008642121455,9.876156151261868e-05
7.888007576654433,-0.0005322813134436529
7.89191428909672,-0.001124872380339455
7.895821001539007,-0.001671686942211481
7.899727713981294,-0.0021660840905472403
7.903634426423581,-0.002589941009473813
7.907541138865868,-0.002965223951048659
7.911447851308155,-0.003346556440105541
7.9153545637504426,-0.0037786116105111376
7.91926127619273,-0.004296034966100325
7.923167988635017,-0.004923444380676184
7.927074701077304,-0.005675430098009993
7.930981413519591,-0.006556554731841226
7.934888125961878,-0.007561353265877565
7.938794838404165,-0.00867433305379489
7.942701550846454,-0.009894234799392602
7.946608263288741,-0.011020831420894725
7.9505149757310285,-0.011671583588989178
7.954421688173316,-0.011536068233444796
7.958328400615603,-0.010380440708580492
7.96223511305789,-0.008047434793265258
7.966141825500177,-0.004456362690918152
7.970048537942464,0.00039688497049167673
7.973955250384751,0.006439839138445012
7.977861962827038,0.01352345233587256
7.9817686752693255,0.021403572257654536
7.985675387711613,0.02922540392616562
7.9895821001539,0.03579114218716965
7.993488812596187,0.0402119004454046
7.997395525038474,0.04192793009578458
8.001302237480761,0.04070862052339999
8.005208949923048,0.036652499103517436
8.009115662365335,0.030195042219201204
8.013022374807623,0.022226868261969682
8.01692908724991,0.013761969894946258
8.020835799692197,0.005616750086766653
8.024742512134484,-0.0015991847594674924
8.028649224576771,-0.007483024806188669
8.032555937019058,-0.011838756781363396
8.036462649461345,-0.014613116132054278
8.040369361903634,-0.015805062086182462
8.044276074345921,-0.015796221295683904
8.048182786788209,-0.014955131918757057
8.052089499230496,-0.013597848317073655
8.055996211672783,-0.01198794105577961
8.05990292411507,-0.010336496903494993
8.063809636557357,-0.008802118832314042
8.067716348999644,-0.007490926017805204
8.071623061441931,-0.006456553839011033
8.075529773884218,-0.00570015387844831
8.079436486326506,-0.005170232620717005
8.083343198768793,-0.004782692308445178
8.08724991121108,-0.004490601072825668
8.091156623653367,-0.004260985888086166
8.095063336095654,-0.0040657560449548266
8.098970048537941,-0.0038817031506602527
8.102876760980228,-0.0036905011289315075
8.106783473422515,-0.003478706219998106
8.110690185864803,-0.0032377569805900224
8.11459689830709,-0.0029639742839376836
8.118503610749377,-0.0026585613197719713
8.122410323191664,-0.0023276035943242263
8.126317035633951,-0.0019749944569635537
8.130223748076238,-0.0015936507249825578
8.134130460518527,-0.0011824141912227654
8.138037172960814,-0.0007407317335011102
8.141943885403101,-0.0002685008188009893
8.145850597845389,0.00023393049672700266
8.149757310287676,0.0007657635677652541
8.153664022729963,0.0013257491598291367
8.15757073517225,0.0019121874492670048
8.161477447614537,0.0025229280232601965
8.165384160056824,0.0031553698798230346
8.169290872499111,0.0038064614278028215
8.173197584941398,0.004472700486879843
8.177104297383686,0.0051501889037064595
8.181011009825973,0.005838155767544517
8.18491772226826,0.006531669903455164
8.188824434710547,0.007222903933334604
8.192731147152834,0.007904444592997852
8.196637859595121,0.008569292732178735
8.200544572037408,0.009210863314529895
8.204451284479696,0.009822985417622781
8.208357996921983,0.010399902232947662
8.21226470936427,0.010936271065913616
8.216171421806557,0.011427163335848528
8.220078134248844,0.011868064575999107
8.223984846691131,0.012254874433530865
8.227891559133418,0.012583906669528128
8.231798271575707,0.01285188915899415
8.235704984017994,0.01305596389085063
8.239611696460281,0.013193686967938476
8.243518408902569,0.013263028607017262
8.247425121344856,0.013262373138765382
8.251331833787143,0.013190519007780035
8.25523854622943,0.013046678772577237
8.259145258671717,0.012828154087911412
8.263051971114004,0.012532013412542628
8.266958683556291,0.012165309162479659
8.270865395998579,0.011735361662088382
8.274772108440866,0.011249239703399475
8.278678820883153,0.010713760546108423
8.28258553332544,0.010135489917575504
8.286492245767727,0.009520742012825805
8.290398958210014,0.008875579494549203
8.294305670652301,0.008205813493100388
8.298212383094588,0.007517003606498846
8.302119095536876,0.006814457900428865
8.306025807979163,0.006103232908239532
8.30993252042145,0.005388133630944737
8.313839232863737,0.004673713537223172
8.317745945306024,0.003964274563418326
8.321652657748311,0.003263867113538498
8.325559370190598,0.00257629005925678
8.329466082632887,0.0019050907399107576
8.333372795075174,0.0012535649625037473
8.337279507517461,0.00062475700170294
8.341186219959749,2.1459599840633475e-05
8.345092932402036,-0.0005537860330860761
8.348999644844323,-0.0010986902194152926
8.35290635728661,-0.0016112148138203043
8.356813069728897,-0.0020895732033096043
8.360719782171184,-0.0025322303072269035
8.364626494613471,-0.002938260583063928
8.368533207055759,-0.0033089379670401707
8.372439919498046,-0.003646234100563546
8.376346631940333,-0.003952068051709969
8.38025334438262,-0.004228305518651902
8.384160056824907,-0.004476758829658356
8.388066769267194,-0.004699186943094887
8.391973481709481,-0.004897295447423604
8.395880194151768,-0.005072736561203156
8.399786906594056,-0.005227109133088748
8.403693619036343,-0.005361958641832125
8.40760033147863,-0.005478777196281585
8.411507043920917,-0.0055790035353819704
8.415413756363204,-0.005664023028174674
8.419320468805491,-0.005735167673797633
8.42322718124778,-0.005793716101485357
8.427133893690067,-0.005840893570568828
8.431040606132354,-0.0058778719704756606
8.434947318574642,-0.005905769820729979
8.438854031016929,-0.00592565227095246
8.442760743459216,-0.005938531100860331
8.446667455901503,-0.005945364720267361
8.45057416834379,-0.0059470581690838735
8.454480880786077,-0.005944463117316734
8.458387593228364,-0.0059383778650693555
8.462294305670651,-0.005929547342541704
8.466201018112939,-0.005918662065991103
8.470107730555226,-0.005906117679519866
8.474014442997513,-0.005892035914185886
8.4779211554398,-0.005876582304230689
8.481827867882087,-0.005859913892684466
8.485734580324374,-0.005842179231366072
8.489641292766661,-0.0058235183808830245
8.493548005208948,-0.005804062910631505
8.497454717651236,-0.005783935898796357
8.501361430093523,-0.005763251932351089
8.50526814253581,-0.005742117107057874
8.509174854978097,-0.005720629027467545
8.513081567420384,-0.005698876806919602
8.516988279862671,-0.005676941067542205
8.52089499230496,-0.00565489394025217
8.524801704747247,-0.005632799064755006
8.528708417189534,-0.005610711589544854
8.532615129631822,-0.00558867817190453
8.536521842074109,-0.0055667369779055145
8.540428554516396,-0.005544917682407948
8.544335266958683,-0.005523241469060636
8.54824197940097,-0.005501721030301048
8.552148691843257,-0.005480360567355317
8.556055404285544,-0.00545915579023824
8.559962116727831,-0.005438093917753274
8.563868829170119,-0.005417153677492544
8.567775541612406,-0.005396305305836836
8.571682254054693,-0.005375510547955598
8.57558896649698,-0.005354722657806945
8.579495678939267,-0.005333880696046105
8.583402391381554,-0.005312866376540693
8.587309103823841,-0.005291724134017526
8.591215816266129,-0.005270539646129381
8.595122528708416,-0.005249388195384241
8.599029241150703,-0.00522833466914528
8.60293595359299,-0.005207433559630879
8.606842666035277,-0.005186728963914613
8.610749378477564,-0.005166254583925258
8.614656090919851,-0.005146033726446789
8.61856280336214,-0.005126079303118373
8.622469515804427,-0.005106393830434399
8.626376228246714,-0.005086969429744432
8.630282940689002,-0.005067787827253243
8.634189653131289,-0.005048820354020805
8.638096365573576,-0.005030027945962287
8.642003078015863,-0.005011361143848059
8.64590979045815,-0.004992760093303689
8.649816502900437,-0.004974154544809946
8.653723215342724,-0.004955463853702796
8.657629927785012,-0.004936596980173407
8.661536640227299,-0.0049174524892681435
8.665443352669586,-0.004897918550888571
8.669350065111873,-0.004877872939791453
8.67325677755416,-0.004857183035588753
8.677163489996447,-0.004835705822747633
8.681070202438734,-0.004813287890590456
8.684976914881021,-0.004789765433294781
8.688883627323309,-0.00476496424989337
8.692790339765596,-0.004738584681663338
8.696697052207883,-0.004709762667336992
8.70060376465017,-0.004677291334668639
8.704510477092457,-0.00463972481366671
8.708417189534744,-0.00459537822280077
8.712323901977033,-0.004542327669001494
8.71623061441932,-0.00447841024766076
8.720137326861607,-0.004401224042631515
8.724044039303894,-0.004308128126227861
8.727950751746182,-0.004196242559225031
8.731857464188469,-0.004062448390859395
8.735764176630756,-0.0039033876588284565
8.739670889073043,-0.0037154633892908513
8.74357760151533,-0.003494839596866351
8.747484313957617,-0.0032374412846358598
8.751391026399904,-0.002938954444141417
8.755297738842192,-0.0025948260553861954
8.759204451284479,-0.0021995447153599036
8.763111163726766,-0.0017494375262009161
8.767017876169053,-0.0012477794183419005
8.77092458861134,-0.0006991307730086754
8.774831301053627,-0.00010899695299229411
8.778738013495914,0.0005161716973509588
8.782644725938201,0.0011689798520995616
8.786551438380489,0.001841087203766762
8.790458150822776,0.0025232084633005714
8.794364863265063,0.003205113360083769
8.79827157570735,0.003875626641933901
8.802178288149637,0.004522628075103278
8.806085000591924,0.00513305244427898
8.809991713034213,0.005692889552583089
8.8138984254765,0.006187184221571703
8.817805137918787,0.006600036291236461
8.821711850361075,0.006914600620003513
8.825618562803362,0.007113245469609421
8.829525275245649,0.007186975506247124
8.833431987687936,0.0071413784462103684
8.837338700130223,0.006983911602325367
8.84124541257251,0.006722702810247486
8.845152125014797,0.006366550428461243
8.849058837457084,0.005924923338280311
8.852965549899372,0.005407960943847512
8.856872262341659,0.004826473172134825
8.860778974783946,0.004191940472943379
8.864685687226233,0.0035165138189034565
8.86859239966852,0.002813014705474493
8.872499112110807,0.002094935150945075
8.876405824553094,0.0013764376964329446
8.880312536995381,0.0006723554058849952
8.884219249437669,-1.8081339227225823e-06
8.888125961879956,-0.0006257560438980275
8.892032674322243,-0.0011099132019731486
8.89593938676453,-0.0014840248406056975
8.899846099206817,-0.0018184924447765549
8.903752811649104,-0.0021712005052227637
8.907659524091393,-0.0025875165184377365
8.91156623653368,-0.003100290986670468
8.915472948975967,-0.0037298574179266456
8.919379661418255,-0.004484032325967952
8.923286373860542,-0.005358115230312217
8.927193086302829,-0.006334888656233447
8.931099798745116,-0.007384618134761798
8.935006511187403,-0.00846505220268359
8.93891322362969,-0.009521422402541304
8.942819936071977,-0.010486443282633576
8.946726648514264,-0.011280312397015196
8.950633360956552,-0.01181646470634216
8.954540073398839,-0.011874678269735612
8.958446785841126,-0.010986857120919282
8.962353498283413,-0.008812789597750411
8.9662602107257,-0.005181151291003456
8.970166923167987,-8.950504437007026e-05
8.974073635610274,0.006295699045540856
8.977980348052562,0.013639123629203246
8.981887060494849,0.021436544104173817
8.985793772937136,0.029014848615092043
8.989700485379423,0.03551061972072837
8.99360719782171,0.039946727961187214
8.997513910263997,0.04169314430517904
9.001420622706284,0.04048534837778278
9.005327335148573,0.03641648752122349
9.00923404759086,0.029937376794881235
9.013140760033147,0.021856498975279658
9.017047472475435,0.01332249176358744
9.020954184917722,0.005233055489193663
9.024860897360009,-0.0019259185918893834
9.028767609802296,-0.007787793929592925
9.032674322244583,-0.012140467014422042
9.03658103468687,-0.01492636737745567
9.040487747129157,-0.0162424575903466
9.044394459571445,-0.01633736064735278
9.048301172013732,-0.015479690103310751
9.052207884456019,-0.01400814046631253
9.056114596898306,-0.012255236207795426
9.060021309340593,-0.010480487124952618
9.06392802178288,-0.008870388340733157
9.067834734225167,-0.007538420303841994
9.071741446667454,-0.006525048788739935
9.075648159109742,-0.005797724895643662
9.079554871552029,-0.0052693745994646535
9.083461583994316,-0.004885449112357888
9.087368296436603,-0.0046024832257293155
9.09127500887889,-0.004382718756620014
9.095181721321177,-0.0041946817118882936
9.099088433763466,-0.0040131822882096164
9.102995146205753,-0.0038193148720769223
9.10690185864804,-0.0036004580398001505
9.110808571090327,-0.0033502745575065516
9.114715283532615,-0.003068711381140623
9.118621995974902,-0.0027619996564640812
9.122528708417189,-0.0024358006984328403
9.126435420859476,-0.0020819792439347364
9.130342133301763,-0.0016988919944949635
9.13424884574405,-0.0012856914734661678
9.138155558186337,-0.0008419561312158202
9.142062270628625,-0.0003676903451262153
9.145968983070912,0.0001366755804055259
9.149875695513199,0.0006702854139674567
9.153782407955486,0.0012318569971328094
9.157689120397773,0.0018196822444599865
9.16159583284006,0.002431627143492568
9.165502545282347,0.0030651317547593093
9.169409257724634,0.0037172102117741393
9.173315970166922,0.004385323868307164
9.177222682609209,0.005069154914932043
9.181129395051496,0.005762113643037802
9.185036107493783,0.006456998383450889
9.18894281993607,0.007146915835180222
9.192849532378357,0.007825281065417187
9.196756244820646,0.008485817509535937
9.200662957262933,0.009122556971092197
9.20456966970522,0.009729839621825068
9.208476382147508,0.010302314001655814
9.212383094589795,0.010834937018688175
9.216289807032082,0.011322973949208354
9.220196519474369,0.011761998437685032
9.224103231916656,0.012147892496769348
9.228009944358943,0.012476846507294921
9.23191665680123,0.012745359218277838
9.235823369243517,0.012950237746916657
9.239730081685805,0.013088597578592393
9.243636794128092,0.013157862566868551
9.247543506570379,0.013155764933491087
9.251450219012666,0.013080345268388444
9.255356931454953,0.012925281698008804
9.25926364389724,0.012689669104814378
9.263170356339527,0.012380640774574396
9.267077068781814,0.012005122917987016
9.270983781224102,0.011569831046553857
9.274890493666389,0.011081269972580004
9.278797206108676,0.010545733809173997
9.282703918550963,0.009969305970247843
9.28661063099325,0.00935785917051701
9.290517343435537,0.008717055425500424
9.294424055877826,0.008052346051520172
9.298330768320113,0.007368971665702707
9.3022374807624,0.006671962185977049
9.306144193204688,0.0059661368310759706
9.310050905646975,0.005256104120535713
9.313957618089262,0.004546261874695964
9.317864330531549,0.003840797214699895
9.321771042973836,0.003143686562494122
9.325677755416123,0.002458695640828722
9.32958446785841,0.0017893794732572535
9.333491180300697,0.0011390823841367081
9.337397892742985,0.0005109379986275638
9.341304605185272,-9.213075730625173e-05
9.345211317627559,-0.0006674116568973574
9.349118030069846,-0.0012124031725748805
9.353024742512133,-0.001724814475964528
9.35693145495442,-0.0022025654378885207
9.360838167396707,-0.002643786628365608
9.364744879838995,-0.0030477422689192705
9.368651592281282,-0.0034162678218600546
9.372558304723569,-0.0037513779737762426
9.376465017165856,-0.004055029447077153
9.380371729608143,-0.004329121608274272
9.38427844205043,-0.004575496467981252
9.388185154492719,-0.004795938680914006
9.392091866935006,-0.004992175545890322
9.395998579377293,-0.005165877005830459
9.39990529181958,-0.005318655647756734
9.403812004261868,-0.005452066702793635
9.407718716704155,-0.005567608046167817
9.411625429146442,-0.005666720197208097
9.415532141588729,-0.005750786319345466
9.419438854031016,-0.005821132220113075
9.423345566473303,-0.0058790263511462465
9.42725227891559,-0.005925679808182465
9.431158991357877,-0.005962246331061389
9.435065703800165,-0.005989822303724837
9.438972416242452,-0.006009446754216796
9.442879128684739,-0.0060221013546834234
9.446785841127026,-0.0060287104213730385
9.450692553569313,-0.0060301409146361305
9.4545992660116,-0.0060272024389253585
9.458505978453887,-0.006020647242795538
9.462412690896175,-0.006011170218903659
9.466319403338462,-0.00599940890400888
9.470226115780749,-0.005985943478972527
9.474132828223036,-0.005971159926032063
9.478039540665323,-0.005955156833304029
9.48194625310761,-0.005938064478119185
9.485852965549899,-0.005920006900933996
9.489759677992186,-0.005901101625444303
9.493666390434473,-0.005881459658585267
9.49757310287676,-0.005861185490531408
9.501479815319048,-0.005840377094696589
9.505386527761335,-0.005819125927734025
9.509293240203622,-0.005797516929536275
9.513199952645909,-0.005775628523235248
9.517106665088196,-0.005753532615202201
9.521013377530483,-0.0057312945950477355
9.52492008997277,-0.005708973335621804
9.528826802415058,-0.005686621193013704
9.532733514857345,-0.005664284006552082
9.536640227299632,-0.005642001098804932
9.540546939741919,-0.005619805275579596
9.544453652184206,-0.005597722825922761
9.548360364626493,-0.005575773522120465
9.55226707706878,-0.0055539706196980915
9.556173789511067,-0.005532320857420372
9.560080501953355,-0.005510824457291386
9.563987214395642,-0.005489475124554561
9.567893926837929,-0.005468260047692671
9.571800639280216,-0.005447159898427837
9.575707351722503,-0.00542614883172153
9.57961406416479,-0.005405194485774567
9.58352077660708,-0.005384257982027102
9.587427489049366,-0.0053632813702298434
9.591334201491653,-0.005342073661589378
9.59524091393394,-0.005320684006698155
9.599147626376228,-0.005299228468283368
9.603054338818515,-0.005277808062274359
9.606961051260802,-0.005256508757802617
9.610867763703089,-0.005235401477201775
9.614774476145376,-0.005214542096007617
9.618681188587663,-0.005193971442958069
9.62258790102995,-0.005173715299993208
9.626494613472238,-0.005153784402255256
9.630401325914525,-0.005134174438088583
9.634308038356812,-0.005114866049039704
9.638214750799099,-0.0050958248298572815
9.642121463241386,-0.005077001328492127
9.646028175683673,-0.005058331046097196
9.64993488812596,-0.005039734437027591
9.653841600568247,-0.005021116908840564
9.657748313010535,-0.005002368822295511
9.661655025452822,-0.0049833654913539775
9.665561737895109,-0.004963967183179653
9.669468450337396,-0.004944019118138376
9.673375162779683,-0.00492335146979813
9.677281875221972,-0.004901779364929038
9.68118858766426,-0.004879102883503396
9.685095300106546,-0.00485510705869562
9.689002012548833,-0.004829561876882283
9.69290872499112,-0.004802222277642104
9.696815437433408,-0.004772984396302039
9.700722149875695,-0.00474077950773868
9.704628862317982,-0.0047037734921521555
9.708535574760269,-0.004659959195542777
9.712442287202556,-0.004607156429747624
9.716348999644843,-0.004543011972440541
9.72025571208713,-0.00446499956713214
9.724162424529418,-0.004370419923169801
9.728069136971705,-0.004256400715737671
9.731975849413992,-0.004119896585856663
9.735882561856279,-0.003957689140384457
9.739789274298566,-0.0037663869520155003
9.743695986740853,-0.0035424255592810066
9.74760269918314,-0.003282067466548958
9.751509411625428,-0.0029814021440241006
9.755416124067715,-0.0026363460277479514
9.759322836510002,-0.002242642519598792
9.763229548952289,-0.001794372353967841
9.767136261394576,-0.0012890835000440983
9.771042973836863,-0.0007334036485889038
9.774949686279152,-0.00013482225091547562
9.77885639872144,0.0004985761891911807
9.782763111163726,0.0011581121154759073
9.786669823606013,0.0018345109192123223
9.7905765360483,0.002517902939203081
9.794483248490588,0.003197823461779882
9.798389960932875,0.0038632127208034594
9.802296673375162,0.0045024158976635816
9.806203385817449,0.005103183121279066
9.810110098259736,0.0056526694680977575
9.814016810702023,0.006137434962096551
9.81792352314431,0.006543444574781369
9.821830235586598,0.006856068225187183
9.825736948028885,0.007060080779877992
9.829643660471172,0.007139914292632537
9.833550372913459,0.00709118133214917
9.837457085355746,0.006924205149191257
9.841363797798033,0.0066502925278772605
9.84527051024032,0.00628086374066322
9.849177222682608,0.005827452548342745
9.853083935124895,0.005301706200047019
9.856990647567182,0.004715385433244798
9.860897360009469,0.004080364473742413
9.864804072451756,0.003408631035683764
9.868710784894043,0.0027122863215503293
9.872617497336332,0.0020035450221608303
9.87652420977862,0.0012947353166725363
9.880430922220906,0.0005982988725793245
9.884337634663193,-7.320915428704177e-05
9.88824434710548,-0.0007071201197572201
9.892151059547768,-0.001290620456161636
9.896057771990055,-0.0018053927783642939
9.899964484432342,-0.0022617310239628928
9.90387119687463,-0.002685576418026573
9.907777909316916,-0.0031019749732189633
9.911684621759203,-0.0035350774897981814
9.91559133420149,-0.004008139555616835
9.919498046643778,-0.004543521546122019
9.923404759086065,-0.0051626886243553195
9.927311471528352,-0.0058862107409528115
9.931218183970639,-0.006733762634145055
9.935124896412926,-0.007724123829757104
9.939031608855213,-0.008871488849475957
9.9429383212975,-0.010060217593105446
9.946845033739788,-0.01102711651130887
9.950751746182075,-0.011520044800439173
9.954658458624362,-0.011307861793651579
9.958565171066649,-0.010180426960903597
9.962471883508936,-0.00794859990895502
9.966378595951225,-0.004444240381366014
9.970285308393512,0.0004959294278457857
9.9741920208358,0.006941811106408884
9.978098733278086,0.014343758965127856
9.982005445720374,0.02203417111611973
9.98591215816266,0.029328023563947495
9.989818870604948,0.035522870205620116
9.993725583047235,0.03989884283059252
9.997632295489522,0.04171865112076564
10.00153900793181,0.04027113395035858
10.005445720374096,0.03573571104037788
10.009352432816383,0.029083265528342853
10.01325914525867,0.02121470789679167
10.017165857700958,0.012926354090563679
10.021072570143245,0.0049099255167993835
10.024979282585532,-0.002247450955059467
10.028885995027819,-0.00806325512005525
10.032792707470106,-0.012266517182006106
10.036699419912393,-0.01493767998757203
10.04060613235468,-0.01623459555541784
10.044512844796968,-0.016356276283595067
10.048419557239255,-0.015542894949541954
10.052326269681542,-0.014075784710083444
10.056232982123829,-0.012277439101431229
10.060139694566116,-0.010498697952008829
10.064046407008405,-0.00893048523090686
10.067953119450692,-0.0076182199710296515
10.07185983189298,-0.006580583677592302
10.075766544335266,-0.0058111622360446525
10.079673256777554,-0.0052784459120705065
10.08357996921984,-0.004925829351587649
10.087486681662128,-0.004671611849199385
10.091393394104415,-0.0044478028027873946
10.095300106546702,-0.0042425214932109
10.09920681898899,-0.004041724371746981
10.103113531431276,-0.0038338614856216605
10.107020243873563,-0.003609876478009904
10.11092695631585,-0.003363206588035623
10.114833668758138,-0.003089782650771671
10.118740381200425,-0.002788029097239847
10.122647093642712,-0.0024588639544108927
10.126553806084999,-0.002103356198578308
10.130460518527286,-0.0017189948743065557
10.134367230969573,-0.0013047338542780348
10.13827394341186,-0.0008600152278886561
10.142180655854148,-0.0003847404323828003
10.146087368296435,0.0001207297471466826
10.149994080738722,0.000655575177758474
10.153900793181009,0.001218516378662784
10.157807505623296,0.001807814521221353
10.161714218065585,0.0024212714289477376
10.165620930507872,0.0030562295775061815
10.16952764295016,0.003709572094713289
10.173434355392446,0.0043777227605369205
10.177341067834734,0.005056646007096474
10.18124778027702,0.005741856028613976
10.185154492719308,0.006431751827209356
10.189061205161595,0.007121591353571198
10.192967917603882,0.007803244461975958
10.19687463004617,0.008469078363713297
10.200781342488456,0.009111957627086067
10.204688054930743,0.009725244177410336
10.20859476737303,0.010302797297015356
10.212501479815318,0.010838973625243593
10.216408192257605,0.011328627158450705
10.220314904699892,0.011767109250005561
10.22422161714218,0.012150268610290216
10.228128329584466,0.01247445130669994
10.232035042026753,0.012736500763643199
10.23594175446904,0.012933757762541657
10.239848466911328,0.013064060441830179
10.243755179353615,0.013125744296956836
10.247661891795902,0.013117642180382891
10.251568604238189,0.01303908430158282
10.255475316680478,0.012889898227044207
10.259382029122765,0.012670408880268056
10.263288741565052,0.01237806843209614
10.26719545400734,0.012010100743946298
10.271102166449626,0.011574611864192983
10.275008878891914,0.011079752736196869
10.2789155913342,0.010533329485507063
10.282822303776488,0.00994280341986109
10.286729016218775,0.009315291029184904
10.290635728661062,0.008657563985592889
10.29454244110335,0.007976049143387842
10.298449153545636,0.0072768285390609954
10.302355865987924,0.006565639391292002
10.30626257843021,0.005847874100948944
10.310169290872498,0.0051285802510883235
10.314076003314785,0.004412460606955071
10.317982715757072,0.003703873115982541
10.32188942819936,0.0030068309077925133
10.325796140641646,0.002325002294195192
10.329702853083933,0.0016617107691892126
10.33360956552622,0.0010199350089616262
10.337516277968508,0.0004023088718879096
10.341422990410795,-0.00018887860146802292
10.345329702853082,-0.0007516831883538442
10.349236415295369,-0.0012845054838288017
10.353143127737658,-0.0017860909007639328
10.357049840179945,-0.0022555296698411713
10.360956552622232,-0.002692256839554723
10.36486326506452,-0.0030960522762101365
10.368769977506807,-0.0034670406639245137
10.372676689949094,-0.00380569150462658
10.37658340239138,-0.004112359654211096
10.380490114833668,-0.004387709940000236
10.384396827275955,-0.004633842485095869
10.388303539718242,-0.0048528200018870885
10.39221025216053,-0.0050466271365754226
10.396116964602816,-0.005217170469174834
10.400023677045104,-0.005366278513511723
10.40393038948739,-0.005495701717224929
10.407837101929678,-0.005607112461765723
10.411743814371965,-0.005702105062397813
10.415650526814252,-0.005782195768197346
10.41955723925654,-0.005848822762052904
10.423463951698826,-0.005903346160665505
10.427370664141113,-0.0059470480145486
10.4312773765834,-0.005981132308028084
10.435184089025688,-0.006006724959242281
10.439090801467975,-0.006024873820141954
10.442997513910262,-0.006036548676490303
10.44690422635255,-0.006042641247862962
10.450810938794838,-0.006043965187648005
10.454717651237125,-0.006041256083045936
10.458624363679412,-0.0060351714550697
10.4625310761217,-0.006026290758544681
10.466437788563987,-0.006015115382108693
10.470344501006274,-0.006002068648211986
10.47425121344856,-0.0059874958131172565
10.478157925890848,-0.005971664066899621
10.482064638333135,-0.005954762533446649
10.485971350775422,-0.005936902270458341
10.48987806321771,-0.005918116269447113
10.493784775659996,-0.005898359455737856
10.497691488102284,-0.005877778520045719
10.50159820054457,-0.005856922164312432
10.505504912986858,-0.005835842089673185
10.509411625429145,-0.005814566901808306
10.513318337871432,-0.005793123922120613
10.51722505031372,-0.005771539187735407
10.521131762756006,-0.005749837451500473
10.525038475198293,-0.0057280421819860825
10.52894518764058,-0.005706175563484991
10.532851900082868,-0.00568425849601244
10.536758612525155,-0.005662310595306154
10.540665324967442,-0.005640350192826344
10.544572037409731,-0.005618394335755696
10.548478749852018,-0.005596458786999411
10.552385462294305,-0.005574558025185145
10.556292174736592,-0.005552705244663047
10.56019888717888,-0.005530912355505754
10.564105599621167,-0.005509189983508385
10.568012312063454,-0.0054875474701885476
10.57191902450574,-0.0054659928727863304
10.575825736948028,-0.00544453296426431
10.579732449390315,-0.005423173233307547
10.583639161832602,-0.005401917884323586
10.58754587427489,-0.005380769837442456
10.591452586717176,-0.005359730728516676
10.595359299159464,-0.005338800909121243
10.59926601160175,-0.0053179794465536435
10.603172724044038,-0.005297264123833848
10.607079436486325,-0.005276651439704311
10.610986148928612,-0.005256136608629974
10.6148928613709,-0.005235713560798261
10.618799573813186,-0.005215374942119082
10.622706286255474,-0.005195112114224832
10.62661299869776,-0.005174915154470392
10.630519711140048,-0.005154772855933126
10.634426423582335,-0.005134672727412884
10.638333136024622,-0.005114339225543191
10.642239848466911,-0.005093589184604014
10.646146560909198,-0.005072732569443004
10.650053273351485,-0.005052003188261436
10.653959985793772,-0.005031553640827046
10.65786669823606,-0.005011455318474016
10.661773410678347,-0.004991698404102981
10.665680123120634,-0.0049721918721810235
10.66958683556292,-0.0049527634887416745
10.673493548005208,-0.004933159811384916
10.677400260447495,-0.004913046189277178
10.681306972889782,-0.00489200676315134
10.68521368533207,-0.004869544465306731
10.689120397774357,-0.004845081019609129
10.693027110216644,-0.004817956941490761
10.69693382265893,-0.004787431537950306
10.700840535101218,-0.004752682907552887
10.704747247543505,-0.004712807940430081
10.708653959985792,-0.004666896010834657
10.71256067242808,-0.004617954684639615
10.716467384870366,-0.004563305843381234
10.720374097312654,-0.00449677746264095
10.72428080975494,-0.0044127299001062515
10.728187522197228,-0.00430605589557068
10.732094234639515,-0.004172180570933828
10.736000947081802,-0.004007061430201344
10.739907659524091,-0.0038071883594848286
10.743814371966378,-0.0035695836270022148
10.747721084408665,-0.003291801883077225
10.751627796850952,-0.0029719301601397186
10.75553450929324,-0.0026085878727256074
10.759441221735527,-0.0022009268174768546
10.763347934177814,-0.0017486311731414786
10.767254646620101,-0.0012519175005735496
10.771161359062388,-0.0007115347427331881
10.775068071504675,-0.000128764224686574
10.778974783946962,0.0004945803463940667
10.78288149638925,0.0011562986550033437
10.786788208831537,0.001849971104512053
10.790694921273824,0.002558303694922122
10.79460163371611,0.0032636541704585097
10.798508346158398,0.003949556628062657
10.802415058600685,0.004600721517392486
10.806321771042972,0.005203035640822398
10.81022848348526,0.005743562153443275
10.814135195927546,0.006210540563062481
10.818041908369834,0.006593386730203861
10.82194862081212,0.006882692868107736
10.825855333254408,0.007070227542730912
10.829762045696695,0.007148935672746678
10.833668758138984,0.007112938529544753
10.837575470581271,0.0069573158564819005
10.841482183023558,0.0066843760029623965
10.845388895465845,0.006307942530037736
10.849295607908132,0.005842398941603123
10.85320232035042,0.005301859446276949
10.857109032792707,0.0047001689574008
10.861015745234994,0.004050903093039449
10.864922457677281,0.0033673681759808674
10.868829170119568,0.0026626012337362106
10.872735882561855,0.0019493699985398318
10.876642595004142,0.0012401729073492707
10.88054930744643,0.0005472391018452602
10.884456019888717,-0.00011747157156827281
10.888362732331004,-0.0007422685617642158
10.89226944477329,-0.0013135032232122015
10.896176157215578,-0.0018253081511459867
10.900082869657865,-0.0022915258790866437
10.903989582100152,-0.002728609045024472
10.90789629454244,-0.0031548371445436364
10.911803006984726,-0.0035903165308221706
10.915709719427014,-0.004056980414631973
10.9196164318693,-0.00457858886433881
10.923523144311588,-0.0051807288059023135
10.927429856753875,-0.005890814022875981
10.931336569196164,-0.006738085156407603
10.935243281638451,-0.007753609705237652
10.939149994080738,-0.008938929747085416
10.943056706523025,-0.010113843864033942
10.946963418965312,-0.011039342103555002
10.9508701314076,-0.011485396547556632
10.954776843849887,-0.011231007657731915
10.958683556292174,-0.010064204275558965
10.962590268734461,-0.007782043622300935
10.966496981176748,-0.004190611299006023
10.970403693619035,0.0009042174135327668
10.974310406061322,0.007338278758877161
10.97821711850361,0.014653648413927446
10.982123830945897,0.02229788685424982
10.986030543388184,0.029624456924010452
10.98993725583047,0.03589272383597544
10.993843968272758,0.04026795517151089
10.997750680715045,0.04182175141647108
11.001657393157332,0.03997734261294493
11.00556410559962,0.03535093389039337
11.009470818041907,0.028744031458928024
11.013377530484194,0.020926019208042945
11.01728424292648,0.012634158706614614
11.021190955368768,0.004573589202901976
11.025097667811055,-0.0025826723754536346
11.029004380253344,-0.008255286269899785
11.032911092695631,-0.012346635649225102
11.036817805137918,-0.014948724795389643
11.040724517580205,-0.016197510917603145
11.044631230022492,-0.01627813893574562
11.04853794246478,-0.015424941480367379
11.052444654907067,-0.013921438892688985
11.056351367349354,-0.012100339224601304
11.060258079791641,-0.0103257305663721
11.064164792233928,-0.008773621915229821
11.068071504676215,-0.007480448129810068
11.071978217118502,-0.006460449729114995
11.07588492956079,-0.005704690670890959
11.079791642003077,-0.005181058351628515
11.083698354445364,-0.004834263606562421
11.087605066887651,-0.004585840709671624
11.091511779329938,-0.004364975240337272
11.095418491772225,-0.004160401188400521
11.099325204214512,-0.003959082512372704
11.1032319166568,-0.003750137701969489
11.107138629099087,-0.0035249631514830916
11.111045341541374,-0.003277233159782281
11.11495205398366,-0.003002899930312374
11.118858766425948,-0.002700193571095237
11.122765478868237,-0.002369622094729131
11.126672191310524,-0.0020125279471190495
11.130578903752811,-0.001626680039914351
11.134485616195098,-0.0012109530057693523
11.138392328637385,-0.0007647904042315068
11.142299041079673,-0.0002880988283372899
11.14620575352196,0.00021875209538780227
11.150112465964247,0.0007549297069292527
11.154019178406534,0.00131913831278352
11.157925890848821,0.0019096191859580437
11.161832603291108,0.002524150565971244
11.165739315733395,0.0031600476588525125
11.169646028175682,0.003814162637142229
11.17355274061797,0.0044828846398917415
11.177459453060257,0.005162139772663388
11.181366165502544,0.005847391107530472
11.185272877944831,0.006535145202712312
11.189179590387118,0.007223253659673957
11.193086302829405,0.007903715814561802
11.196993015271692,0.008568649825226402
11.20089972771398,0.00921070311712037
11.204806440156267,0.009823052383298392
11.208713152598554,0.010399403584417218
11.21261986504084,0.010933991948735662
11.216526577483128,0.011421581972114611
11.220433289925417,0.011857467418017197
11.224340002367704,0.01223747131750804
11.228246714809991,0.012557945969254433
11.232153427252278,0.012815772939525526
11.236060139694565,0.013008363062192533
11.239966852136853,0.013133656438728738
11.24387356457914,0.013190122438209488
11.247780277021427,0.013176759697312199
11.251686989463714,0.013093096120316353
11.255593701906001,0.012939188879103499
11.259500414348288,0.012715624413157248
11.263407126790575,0.012422806939022622
11.267313839232862,0.012056401945030066
11.27122055167515,0.011622157573169317
11.275127264117437,0.011128226659565286
11.279033976559724,0.010582420102988523
11.282940689002011,0.009992206864855222
11.286847401444298,0.00936471396922721
11.290754113886585,0.00870672650281196
11.294660826328872,0.00802468761496258
11.29856753877116,0.007324698517677817
11.302474251213447,0.006612518485602066
11.306380963655734,0.005893564856025353
11.31028767609802,0.005172913028883343
11.314194388540308,0.004455296466757351
11.318101100982597,0.0037451066948739967
11.322007813424884,0.003046393301106523
11.325914525867171,0.002362863935972825
11.329821238309458,0.001697884312636776
11.333727950751745,0.001054478206907879
11.337634663194033,0.0004353274572412823
11.34154137563632,-0.00015722803526222948
11.345448088078607,-0.0007211903068562297
11.349354800520894,-0.0012549033311486553
11.353261512963181,-0.0017570530191018032
11.357168225405468,-0.002226667219032318
11.361074937847755,-0.002663115716611224
11.364981650290042,-0.0030661102348638995
11.36888836273233,-0.003435704434170076
11.372795075174617,-0.003771864136087104
11.376701787616904,-0.004075017152836325
11.380608500059191,-0.004347273540699948
11.384515212501478,-0.004590724847639871
11.388421924943765,-0.004807387494413057
