time,amplitude
0.0009017132551849549,0.031969100877285286
0.004809137360985982,0.029033843907627577
0.00871656146678701,0.023473480165156192
0.012623985572588037,0.016016689929990856
0.016531409678389064,0.00769171822644903
0.02043883378419009,-0.0006180008618995418
0.02434625788999112,-0.008229424811301754
0.028253681995792146,-0.014659902657821147
0.03216110610159317,-0.01962207766511577
0.0360685302073942,-0.02288624665613843
0.03997595431319523,-0.024630122382818247
0.043883378418996255,-0.02516720902273536
0.04779080252479728,-0.024786214899973225
0.05169822663059831,-0.023751052485118596
0.05560565073639934,-0.0223008383952615
0.059513074842200364,-0.020649893393995287
0.06342049894800139,-0.018987742391416616
0.06732792305380242,-0.01747911444412539
0.07123534715960345,-0.016263942755224855
0.07514277126540447,-0.015425844758780054
0.0790501953712055,-0.014859180749732833
0.08295761947700653,-0.014486759587759392
0.08686504358280756,-0.014251208979330646
0.09077246768860858,-0.014105086980623148
0.09467989179440961,-0.014010881997519075
0.09858731590021064,-0.01394101278560624
0.10249474000601166,-0.013877828450178091
0.10640216411181269,-0.013813608446233703
0.11030958821761372,-0.01375056257847778
0.11421701232341475,-0.013695052412588364
0.11812443642921577,-0.013639913542675635
0.1220318605350168,-0.013584800232670158
0.12593928464081783,-0.013529929708662717
0.12984670874661886,-0.013475285379358251
0.13375413285241988,-0.01342061683607586
0.1376615569582209,-0.013365439852748798
0.14156898106402194,-0.01330903638592448
0.14547640516982296,-0.013250454574764479
0.149383829275624,-0.01318850874104452
0.15329125338142502,-0.013121779389154493
0.15719867748722605,-0.013048613206098443
0.16110610159302707,-0.012967123061494569
0.1650135256988281,-0.012875188007575233
0.16892094980462868,-0.012770453279186963
0.1728283739104297,-0.012649698865123713
0.17673579801623074,-0.012504230412064363
0.18064322212203177,-0.012331229617558748
0.1845506462278328,-0.012130291260850658
0.18845807033363382,-0.011901703999860324
0.19236549443943485,-0.011646450371184421
0.19627291854523587,-0.011366206790096055
0.2001803426510369,-0.011063343550544778
0.20408776675683793,-0.010740924825156584
0.20799519086263896,-0.0104027086652339
0.21190261496843998,-0.010053147000755595
0.215810039074241,-0.00969738564037698
0.21971746318004204,-0.009341264271429806
0.22362488728584307,-0.008991316459922257
0.2275323113916441,-0.008654769650538966
0.23143973549744512,-0.008339545166641
0.23534715960324615,-0.008054258210265865
0.23925458370904717,-0.007808217862127511
0.2431620078148482,-0.007611427081616325
0.24706943192064923,-0.0074745827067991336
0.25097685602645026,-0.007409075454419203
0.2548842801322513,-0.007426989919896239
0.2587917042380523,-0.00753559437438394
0.26269912834385334,-0.007716911301750959
0.26660655244965437,-0.007954247987039734
0.2705139765554554,-0.008232901556150082
0.2744214006612564,-0.008539466859676992
0.27832882476705745,-0.00886183647291061
0.2822362488728585,-0.009189200695836253
0.2861436729786595,-0.009512047553134402
0.29005109708446053,-0.009822162794180701
0.29395852119026156,-0.01011262989304596
0.2978659452960626,-0.010377830048496158
0.3017733694018636,-0.010613442183992433
0.30568079350766464,-0.010816442947691095
0.30958821761346567,-0.010985106712443612
0.3134956417192667,-0.011119005575796623
0.3174030658250677,-0.01121900935999193
0.32131048993086875,-0.0112872856119665
0.3252179140366698,-0.011327299603352468
0.3291253381424708,-0.011343814330477122
0.33303276224827183,-0.01134289051436294
0.33694018635407286,-0.01133188660072754
0.3408476104598739,-0.011318141274066808
0.3447550345656749,-0.011299045610755547
0.34866245867147594,-0.011274240743772156
0.35256988277727697,-0.011244614212320151
0.356477306883078,-0.011210986830135754
0.360384730988879,-0.011174112685487904
0.36429215509468005,-0.01113467914117824
0.3681995792004811,-0.011093306834541123
0.3721070033062821,-0.01105054967744361
0.37601442741208313,-0.011006894856285476
0.37992185151788416,-0.010962762831999207
0.3838292756236852,-0.010918507340049993
0.3877366997294862,-0.010874415390435736
0.39164412383528724,-0.01083070726768705
0.39555154794108827,-0.010787536530867255
0.3994589720468893,-0.010744990013572382
0.4033663961526903,-0.010703087823931173
0.40727382025849135,-0.010661783344605078
0.4111812443642924,-0.010620963232788258
0.4150886684700934,-0.01058044742020758
0.41899609257589443,-0.010539989113122627
0.42290351668169546,-0.010499274792325689
0.4268109407874965,-0.01045833300088604
0.4307183648932975,-0.010417548445395117
0.43462578899909854,-0.010376922803688376
0.43853321310489957,-0.010336455469185539
0.4424406372107006,-0.010296145837037132
0.4463480613165016,-0.010255993304124484
0.45025548542230265,-0.010215997269059732
0.4541629095281037,-0.010176157132185821
0.4580703336339047,-0.010136472295576496
0.46197775773970573,-0.010096942163036313
0.46588518184550676,-0.010057566140100628
0.4697926059513078,-0.010018343634035606
0.4737000300571088,-0.009979274053838217
0.47760745416290984,-0.009940356810236235
0.48151487826871087,-0.00990159131568824
0.4854223023745119,-0.00986297698438362
0.4893297264803129,-0.009824513232242564
0.49323715058611395,-0.00978619947691607
0.497144574691915,-0.009748035137785938
0.501051998797716,-0.009710019635964778
0.5049594229035166,-0.009672152394296005
0.5088668470093176,-0.00963443283735383
0.5127742711151186,-0.009596860391443281
0.5166816952209197,-0.009559434484600188
0.5205891193267207,-0.009522154546591183
0.5244965434325217,-0.00948502000891371
0.5284039675383227,-0.009448030304796011
0.5323113916441238,-0.00941118486919714
0.5362188157499248,-0.009374483138806951
0.5401262398557258,-0.009337924552046106
0.5440336639615269,-0.009301508549066072
0.5479410880673279,-0.009265234571749124
0.5518485121731289,-0.00922910206370834
0.5557559362789299,-0.0091931104702876
0.559663360384731,-0.009157259238561597
0.563570784490532,-0.009121547817335821
0.567478208596333,-0.009085975657146578
0.571385632702134,-0.009050542210260968
0.5752930568079351,-0.009015246930676903
0.5792004809137361,-0.008980088321402535
0.5831079050195371,-0.008945045897080001
0.5870153291253382,-0.008910121770544085
0.5909227532311392,-0.008875327739507673
0.5948301773369402,-0.008840673306027542
0.5987376014427412,-0.008806165676504371
0.6026450255485423,-0.008771809761682738
0.6065524496543433,-0.008737608176651118
0.6104598737601443,-0.008703561240841887
0.6143672978659453,-0.008669666978031317
0.6182747219717464,-0.008635921116339582
0.6221821460775474,-0.008602317088230753
0.6260895701833484,-0.008568846030512799
0.6299969942891495,-0.008535496784337591
0.6339044183949505,-0.008502255895200895
0.6378118425007515,-0.008469107612942377
0.6417192666065525,-0.008436033891745605
0.6456266907123536,-0.00840301439013804
0.6495341148181546,-0.008370026470991046
0.6534415389239556,-0.008337045201519885
0.6573489630297566,-0.008304043353283715
0.6612563871355577,-0.008269099875147614
0.6651638112413587,-0.008229871765078034
0.6690712353471597,-0.00818933411965247
0.6729786594529608,-0.008149543050647306
0.6768860835587618,-0.00811142066988403
0.6807935076645628,-0.008074755089229228
0.6847009317703638,-0.008038200420594594
0.6886083558761649,-0.007999276775936927
0.6925157799819659,-0.00795437026725813
0.6964232040877669,-0.007898733006605202
0.700330628193568,-0.007826483106070257
0.704238052299369,-0.007730604677790504
0.70814547640517,-0.007602947833948259
0.712052900510971,-0.007434228686770942
0.7159603246167721,-0.007214029348531078
0.7198677487225731,-0.006930797931546293
0.7237751728283741,-0.0065927091578845826
0.7276825969341751,-0.006177248863730833
0.7315900210399762,-0.0056274805066085795
0.7354974451457772,-0.00489092965217767
0.7394048692515782,-0.003919587253411632
0.7433122933573793,-0.0026699096505976806
0.7472197174631803,-0.001102818571336709
0.7511271415689813,0.000816298869456702
0.7550345656747823,0.003117590169554288
0.7589419897805834,0.005826737439414105
0.7628494138863844,0.008964957402180528
0.7667568379921854,0.012549001393684232
0.7706642620979864,0.016591155362442243
0.7745716862037875,0.021099239869657855
0.7784791103095885,0.026076610089220745
0.7823865344153895,0.031524317262682525
0.7862939585211906,0.03745365073241819
0.7902013826269916,0.04371724614216153
0.7941088067327926,0.05012826858873526
0.7980162308385936,0.05651124769363039
0.8019236549443947,0.06270207760300617
0.8058310790501957,0.06854801698769013
0.8097385031559967,0.07390768904317804
0.8136459272617977,0.07865108148963396
0.8175533513675988,0.08265954657189022
0.8214607754733998,0.08582580105944736
0.8253681995792008,0.08805392624647426
0.8292756236850019,0.08925936795180803
0.8331830477908029,0.089368936518954
0.8370904718966035,0.08832080681608602
0.8409978960024045,0.08606389342454436
0.8449053201082055,0.08266107808978908
0.8488127442140065,0.07830251318449258
0.8527201683198076,0.07317335989586063
0.8566275924256086,0.06744782729098718
0.8605350165314096,0.06128917231685434
0.8644424406372107,0.054849699800332344
0.8683498647430117,0.04827076244817961
0.8722572888488127,0.04168276084704272
0.8761647129546137,0.03520514346345638
0.8800721370604148,0.028946406643843486
0.8839795611662158,0.02300409461451508
0.8878869852720168,0.017464799481670387
0.8917944093778178,0.012404161231396704
0.8957018334836189,0.007886872660232217
0.8996092575894199,0.003948232214906659
0.9035166816952209,0.0005380170262654594
0.907424105801022,-0.0024131688047323557
0.911331529906823,-0.004972262477105088
0.915238954012624,-0.007203742489848366
0.919146378118425,-0.009169628641935126
0.9230538022242261,-0.01092948203231564
0.9269612263300271,-0.01254040505991752
0.9308686504358281,-0.01405704142364566
0.9347760745416291,-0.015531576122382311
0.9386834986474302,-0.017013735454987047
0.9425909227532312,-0.018596670995433343
0.9464983468590322,-0.020090511640148478
0.9504057709648333,-0.021095175398871492
0.9543131950706343,-0.021290855828026714
0.9582206191764353,-0.020439554689757337
0.9621280432822363,-0.018385081951925383
0.9660354673880374,-0.01505305578811172
0.9699428914938384,-0.010450902577616064
0.9738503155996394,-0.004667856905456961
0.9777577397054404,0.002125038437628162
0.9816651638112415,0.00967493245518308
0.9855725879170425,0.017545833479733815
0.9894800120228435,0.02463531099093022
0.9933874361286446,0.029861428241442618
0.9972948602344456,0.0325027879555818
1.0012022843402466,0.03219866288266977
1.0051097084460476,0.028948995797039776
1.0090171325518487,0.023109135607566965
1.0129245566576497,0.015502365629599002
1.0168319807634507,0.007150031664660519
1.0207394048692517,-0.001103432627114865
1.0246468289750528,-0.00860356771421044
1.0285542530808538,-0.014885888193726375
1.0324616771866548,-0.01964878071495993
1.0363691012924559,-0.02276196034675422
1.0402765253982569,-0.024444222102531717
1.044183949504058,-0.024944987786366283
1.048091373609859,-0.024511363833817877
1.05199879771566,-0.02338814131193255
1.055906221821461,-0.021817795919242454
1.059813645927262,-0.020040487985765843
1.063721070033063,-0.018294062473007053
1.067628494138864,-0.016814048973956528
1.071535918244665,-0.015731808532039582
1.0754433423504661,-0.014956947791458314
1.0793507664562672,-0.014419661833206893
1.0832581905620682,-0.014059520013529881
1.0871656146678692,-0.013825211413483033
1.0910730387736702,-0.01367454483893329
1.0949804628794713,-0.013574448820558777
1.0988878869852723,-0.013500971613848816
1.1027953110910733,-0.013439239119288706
1.1067027351968743,-0.013380650495128571
1.1106101593026754,-0.013323273811602903
1.1145175834084764,-0.013267327761542394
1.1184250075142774,-0.013212866375449482
1.1223324316200785,-0.013159779021498352
1.1262398557258795,-0.013107790405534928
1.1301472798316805,-0.013056460571076886
1.1340547039374815,-0.01300518489931364
1.1379621280432826,-0.012953194109106354
1.1418695521490836,-0.012899554256987932
1.1457769762548846,-0.012843166737163026
1.1496844003606856,-0.012782768281508032
1.1535918244664867,-0.012716930959571089
1.1574992485722877,-0.012644062178572084
1.1614066726780887,-0.012562404683402646
1.1653140967838898,-0.012470036556626148
1.1692215208896908,-0.012364871218477711
1.1731289449954918,-0.012243393933072702
1.1770363691012928,-0.012099391824486074
1.1809437932070939,-0.011930161107935188
1.1848512173128949,-0.011734075827977307
1.188758641418696,-0.011510395296785051
1.192666065524497,-0.011259264094146406
1.196573489630298,-0.010981712067464717
1.200480913736099,-0.010679654331758694
1.2043883378419,-0.010355891269662406
1.208295761947701,-0.010014108531425285
1.212203186053502,-0.009658877034912125
1.216110610159303,-0.009295652965603085
1.2200180342651041,-0.00893077777659368
1.2239254583709052,-0.008571478188594793
1.2278328824767062,-0.008225866189932665
1.2317403065825072,-0.0079029390365489
1.2356477306883082,-0.007612579252000464
1.2395551547941093,-0.007365554627459688
1.2434625788999103,-0.00717351822171426
1.2473700030057113,-0.007049008361167234
1.2512774271115124,-0.00700544863983702
1.2551848512173134,-0.007054688099399029
1.2590922753231144,-0.007187712204134365
1.2629996994289154,-0.007387314916285423
1.2669071235347165,-0.007637792484694099
1.2708145476405175,-0.007924781673626822
1.2747219717463185,-0.008235259762774545
1.2786293958521195,-0.00855754454725275
1.2825368199579206,-0.008881294337601452
1.2864442440637216,-0.009197507959785184
1.2903516681695226,-0.009498524755193017
1.2942590922753237,-0.009778024580638544
1.2981665163811247,-0.010031027808359887
1.3020739404869257,-0.010253895326019702
1.3059813645927267,-0.010444328536705162
1.3098887886985278,-0.010601369358927977
1.3137962128043288,-0.01072540022662438
1.3177036369101298,-0.010818144089155136
1.3216110610159308,-0.01088266441130554
1.3255184851217319,-0.0109233651732854
1.329425909227533,-0.010945990870729078
1.333333333333334,-0.01095705007501907
1.337240757439134,-0.010957766532467711
1.341148181544935,-0.010949002648755219
1.3450556056507361,-0.010932146150459541
1.3489630297565371,-0.010908485018738616
1.3528704538623382,-0.010879207489330371
1.3567778779681392,-0.010845402052552737
1.3606853020739402,-0.010808057453303628
1.3645927261797413,-0.010768062691060957
1.3685001502855423,-0.010726207019882627
1.3724075743913433,-0.010683179948406535
1.3763149984971443,-0.010639571239850576
1.3802224226029454,-0.010595870912012627
1.3841298467087464,-0.010552469237270571
1.3880372708145474,-0.010509656742582274
1.3919446949203484,-0.010467624209485604
1.3958521190261495,-0.010426462674098413
1.3997595431319505,-0.010386163427118553
1.4036669672377515,-0.010346618013823864
1.4075743913435526,-0.010307618234072185
1.4114818154493536,-0.010268856142301344
1.4153892395551546,-0.010229924047529164
1.4192966636609556,-0.010190353153163556
1.4232040877667567,-0.01015061487133372
1.4271115118725577,-0.01011103124423337
1.4310189359783587,-0.010071601697408636
1.4349263600841597,-0.01003232565740077
1.4388337841899608,-0.00999320255174616
1.4427412082957618,-0.009954231808976336
1.4466486324015628,-0.009915412858617953
1.4505560565073639,-0.009876745131192806
1.4544634806131649,-0.00983822805821782
1.458370904718966,-0.00979986107220506
1.462278328824767,-0.009761643606661716
1.466185752930568,-0.009723575096090122
1.470093177036369,-0.00968565497598774
1.47400060114217,-0.00964788268284717
1.477908025247971,-0.00961025765415614
1.481815449353772,-0.009572779328397521
1.485722873459573,-0.00953544714504931
1.4896302975653741,-0.009498260544584644
1.4935377216711752,-0.00946121896847179
1.4974451457769762,-0.009424321859174151
1.5013525698827772,-0.009387568660150267
1.5052599939885782,-0.009350958815853806
1.5091674180943793,-0.009314491771733576
1.5130748422001803,-0.009278166974233514
1.5169822663059813,-0.009241983870792697
1.5208896904117823,-0.00920594190984533
1.5247971145175834,-0.009170040540820757
1.5287045386233844,-0.009134279214143453
1.5326119627291854,-0.00909865738123303
1.5365193868349865,-0.009063174494504233
1.5404268109407875,-0.009027830007366941
1.5443342350465885,-0.008992623374226164
1.5482416591523895,-0.00895755405048205
1.5521490832581906,-0.008922621492529884
1.5560565073639916,-0.008887825157760078
1.5599639314697926,-0.008853164504558184
1.5638713555755936,-0.008818638992304884
1.5677787796813947,-0.008784247852610446
1.5716862037871957,-0.008749975547908434
1.5755936278929967,-0.00871581979350712
1.5795010519987978,-0.008681789187201437
1.5834084761045988,-0.00864789091744509
1.5873159002103998,-0.00861413076335057
1.5912233243162008,-0.008580513094689136
1.5951307484220019,-0.00854704087189083
1.599038172527803,-0.008513715646044471
1.602945596633604,-0.008480537558897654
1.606853020739405,-0.008447505342856754
1.610760444845206,-0.008414616320986919
1.614667868951007,-0.00838186640701208
1.618575293056808,-0.008349250105314942
1.622482717162609,-0.008316760510936987
1.62639014126841,-0.008284389309578475
1.630297565374211,-0.008252126777598448
1.6342049894800121,-0.008219961782014718
1.6381124135858132,-0.008187881780503881
1.6420198376916142,-0.008155872821401304
1.6459272617974152,-0.00812391954370114
1.6498346859032162,-0.00809200517705631
1.6537421100090173,-0.00806011154177852
1.6576495341148183,-0.008027727047994811
1.6615569582206193,-0.007992082686576644
1.6654643823264204,-0.007954904301535682
1.6693718064322214,-0.007918018732656192
1.6732792305380224,-0.007882345815725602
1.6771866546438234,-0.007847898382534512
1.6810940787496245,-0.007813782260876685
1.6850015028554255,-0.007778196274549051
1.6889089269612265,-0.00773843224335171
1.6928163510670275,-0.007690874983087923
1.6967237751728286,-0.007631002305564122
1.7006311992786296,-0.007553385018589902
1.7045386233844306,-0.007451686925978028
1.7084460474902317,-0.007318664827544427
1.7123534715960327,-0.007146168519108197
1.7162608957018337,-0.006925886645527296
1.7201683198076347,-0.006661543790126476
1.7240757439134358,-0.006324089138463987
1.7279831680192368,-0.0058723017252658065
1.7318905921250378,-0.005266218033006142
1.7357980162308388,-0.0044671319919074234
1.7397054403366399,-0.0034375949799403146
1.743612864442441,-0.0021414158228236996
1.747520288548242,-0.0005436607940246928
1.751427712654043,0.001389346385241361
1.755335136759844,0.003690024546010898
1.759242560865645,0.006389535071572118
1.763149984971446,0.009517781897465001
1.767057409077247,0.013103411511481304
1.770964833183048,0.017173812953664543
1.7748722572888491,0.02175511781631002
1.7787796813946501,0.026935091422560814
1.7826871055004512,0.032666900888301514
1.7865945296062522,0.03877552797683611
1.7905019537120532,0.04509435608406712
1.7944093778178543,0.051465176297334686
1.7983168019236553,0.05773818739541657
1.8022242260294563,0.06377199584852808
1.8061316501352573,0.06943361581832225
1.8100390742410584,0.07459846915788962
1.8139464983468594,0.0791503854117584
1.8178539224526604,0.0829816018158944
1.8217613465584614,0.08599276329770104
1.8256687706642625,0.08809292247601938
1.8295761947700635,0.08919953966112801
1.8334836188758645,0.08923848285474321
1.8373910429816656,0.08814402775001887
1.8412984670874666,0.08585867085767995
1.8452058911932676,0.0823533986950977
1.8491133152990686,0.07780499936605173
1.8530207394048697,0.07244408766443983
1.8569281635106707,0.06648272369218698
1.8608355876164717,0.0601144128592453
1.8647430117222727,0.05351410588359411
1.8686504358280738,0.046838198791239884
1.8725578599338748,0.04022453291621629
1.8764652840396758,0.033792394900584145
1.8803727081454769,0.027642516694431463
1.8842801322512779,0.02185707555587342
1.888187556357079,0.01649969405105238
1.89209498046288,0.011615440054137824
1.896002404568681,0.007230826747326516
1.899909828674482,0.0033538126208422503
1.903817252780283,-2.6198527063883703e-05
1.907724676886084,-0.0029383575901136966
1.911632100991885,-0.00543037015400176
1.915539525097686,-0.00756849649639553
1.9194469492034871,-0.009403779169942953
1.9233543733092882,-0.011028252696584528
1.9272617974150892,-0.012571975846704728
1.9311692215208902,-0.014112046462566518
1.9350766456266912,-0.015672144966768584
1.9389840697324923,-0.017222534362245318
1.9428914938382933,-0.018680060232266836
1.9467989179440943,-0.019908150740438946
1.9507063420498953,-0.02071681663070319
1.9546137661556964,-0.020866388853496284
1.9585211902614974,-0.02021415760405566
1.9624286143672984,-0.01844133295569543
1.9663360384730995,-0.015267658351502702
1.9702434625789005,-0.010601956451670494
1.9741508866847015,-0.00454212913349775
1.9780583107905025,0.002624842508610694
1.9819657348963036,0.010422898163144064
1.9858731590021046,0.018186898301485708
1.9897805831079056,0.025067882758047277
1.9936880072137066,0.0301148290802518
1.9975954313195077,0.03255354243640677
2.001502855425308,0.032001690297406925
2.005410279531109,0.028482142342190493
2.00931770363691,0.022422970457739968
2.013225127742711,0.01465744873908231
2.017132551848512,0.006265480020859567
2.021039975954313,-0.0019599533906059768
2.024947400060114,-0.009379317388186188
2.028854824165915,-0.015542323534683678
2.032762248271716,-0.020190437848518483
2.036669672377517,-0.023256880803728
2.040577096483318,-0.024859809037576844
2.044484520589119,-0.025132371803537164
2.04839194469492,-0.02440893829684104
2.052299368800721,-0.02306109163617568
2.056206792906522,-0.021398363939808568
2.0601142170123232,-0.019668236325587476
2.0640216411181243,-0.01805613891094044
2.0679290652239253,-0.01668545081287577
2.0718364893297263,-0.015617500147982058
2.0757439134355273,-0.014851085673924297
2.0796513375413284,-0.014305695927991953
2.0835587616471294,-0.01392029789084317
2.0874661857529304,-0.013661036335889123
2.0913736098587314,-0.01349767012265061
2.0952810339645325,-0.01340357219675805
2.0991884580703335,-0.013355729589951482
2.1030958821761345,-0.01333474342008057
2.1070033062819356,-0.013324828891104598
2.1109107303877366,-0.013313815293092474
2.1148181544935376,-0.013293146002222724
2.1187255785993386,-0.013257878480783502
2.1226330027051397,-0.013206684277172571
2.1265404268109407,-0.013141849025897339
2.1304478509167417,-0.01306927244757481
2.1343552750225427,-0.012998468348931628
2.1382626991283438,-0.012940603243720674
2.142170123234145,-0.012888451705104447
2.146077547339946,-0.012836060748251303
2.149984971445747,-0.012780254166207873
2.153892395551548,-0.012718041166916001
2.157799819657349,-0.012646616373212734
2.16170724376315,-0.012563359822830331
2.165614667868951,-0.012465836968396262
2.169522091974752,-0.012351798677433199
2.173429516080553,-0.012219181232359029
2.177336940186354,-0.012066106330486843
2.181244364292155,-0.011890881084024946
2.185151788397956,-0.011691998020076848
2.189059212503757,-0.011468135080641269
2.192966636609558,-0.011218155622612134
2.196874060715359,-0.010941108417778586
2.20078148482116,-0.010636227652824966
2.2046889089269612,-0.010302932929330828
2.2085963330327623,-0.009940733695129825
2.2125037571385633,-0.00954576799009789
2.2164111812443643,-0.009131029417967607
2.2203186053501653,-0.008715585658972177
2.2242260294559664,-0.008316238992324346
2.2281334535617674,-0.007947526296216397
2.2320408776675684,-0.007621719047820155
2.2359483017733695,-0.007348823323286983
2.2398557258791705,-0.00713657979774779
2.2437631499849715,-0.00699046374531302
2.2476705740907725,-0.006913685039072661
2.2515779981965736,-0.006907188151096241
2.2554854223023746,-0.006969652152432828
2.2593928464081756,-0.007097490713111028
2.2633002705139766,-0.007284852102138992
2.2672076946197777,-0.0075236191875044135
2.2711151187255787,-0.007803409436174516
2.2750225428313797,-0.008111574914096076
2.2789299669371808,-0.00843284338257222
2.282837391042982,-0.008752014841257412
2.286744815148783,-0.009061915141403842
2.290652239254584,-0.009357045503969397
2.294559663360385,-0.009632735830795104
2.298467087466186,-0.009885144704605124
2.302374511571987,-0.01011125938900675
2.306281935677788,-0.010308895828490414
2.310189359783589,-0.01047669864842968
2.31409678388939,-0.010614141155081247
2.318004207995191,-0.010721525335584951
2.321911632100992,-0.010799981857963761
2.325819056206793,-0.010851470071123784
2.329726480312594,-0.010878778004854258
2.333633904418395,-0.010885522369827557
2.337541328524196,-0.010876148557599191
2.341448752629997,-0.010855930640607806
2.345356176735798,-0.01083097137217518
2.3492636008415992,-0.010804816623247187
2.3531710249474003,-0.010775143786545989
2.3570784490532013,-0.010742439423158388
2.3609858731590023,-0.010707223914880333
2.3648932972648034,-0.010669975603813952
2.3688007213706044,-0.01063113079236754
2.3727081454764054,-0.010591083743255566
2.3766155695822064,-0.010550186679498672
2.3805229936880075,-0.010508749784423673
2.3844304177938085,-0.010467041201663555
2.3883378418996095,-0.01042528703515748
2.3922452660054105,-0.010383671349150777
2.3961526901112116,-0.010342336168194952
2.4000601142170126,-0.010301381477147683
2.4039675383228136,-0.010260865221172817
2.4078749624286147,-0.010220803305740381
2.4117823865344157,-0.010181169596626566
2.4156898106402167,-0.01014189591991374
2.4195972347460177,-0.010102872061990445
2.4235046588518188,-0.010063945769551393
2.42741208295762,-0.010024922749597466
2.431319507063421,-0.00998582862179458
2.435226931169222,-0.009946886266922784
2.439134355275023,-0.009908095713257866
2.443041779380824,-0.009869456375731646
2.446949203486625,-0.009830967671169517
2.450856627592426,-0.009792629018290457
2.454764051698227,-0.009754439837707025
2.458671475804028,-0.009716399551925357
2.462578899909829,-0.009678507585345173
2.46648632401563,-0.00964076336425977
2.470393748121431,-0.009603166316856029
2.474301172227232,-0.009565715873214406
2.478208596333033,-0.009528411465308943
2.482116020438834,-0.009491252527007258
2.486023444544635,-0.00945423849407055
2.4899308686504362,-0.009417368804153604
2.4938382927562373,-0.009380642896804776
2.4977457168620383,-0.00934406021346601
2.5016531409678393,-0.009307620197472825
2.5055605650736403,-0.009271322294054325
2.5094679891794414,-0.00923516595033319
2.5133754132852424,-0.009199150615325684
2.5172828373910434,-0.009163275739941646
2.5211902614968444,-0.009127540776984504
2.5250976856026455,-0.009091945181151258
2.5290051097084465,-0.009056488409032492
2.5329125338142475,-0.00902116991911237
2.5368199579200486,-0.008985989171768637
2.5407273820258496,-0.008950945629272617
2.5446348061316506,-0.008916038755789214
2.5485422302374516,-0.008881268017376914
2.5524496543432527,-0.008846632881987782
2.5563570784490537,-0.008812132819467463
2.5602645025548547,-0.008777767301555184
2.5641719266606557,-0.008743535801883752
2.5680793507664568,-0.008709437795979554
2.571986774872258,-0.008675472761262555
2.575894198978059,-0.008641640177046302
2.57980162308386,-0.008607939524537925
2.583709047189661,-0.008574370286838133
2.587616471295462,-0.008540930875991707
2.591523895401263,-0.008507591974689687
2.595431319507064,-0.008474357019890988
2.599338743612865,-0.00844124503462494
2.603246167718666,-0.008408270969443693
2.607153591824467,-0.008375445702422215
2.611061015930268,-0.008342776039158294
2.614968440036069,-0.008310264712772549
2.61887586414187,-0.008277910383908406
2.622783288247671,-0.008245707640732125
2.626690712353472,-0.008213646998932777
2.630598136459273,-0.008181714901722257
2.6345055605650742,-0.008149893719835285
2.6384129846708753,-0.008118161751529398
2.6423204087766763,-0.008086493222584956
2.6462278328824773,-0.008054858286305137
2.6501352569882783,-0.008023223023515946
2.6540426810940794,-0.0079915494425662
2.6579501051998804,-0.007959795479327543
2.6618575293056814,-0.00792789533526454
2.6657649534114825,-0.007891794063462333
2.6696723775172826,-0.00785148025084127
2.6735798016230836,-0.0078102547143008355
2.6774872257288846,-0.0077700244418775445
2.6813946498346857,-0.00773130259274491
2.6853020739404867,-0.007693208497213451
2.6892094980462877,-0.007653467656730693
2.6931169221520888,-0.007608411743881168
2.69702434625789,-0.007552978602386414
2.700931770363691,-0.007480712247104975
2.704839194469492,-0.0073837628640324015
2.708746618575293,-0.007252886810301248
2.712654042681094,-0.0070774466141810795
2.716561466786895,-0.006845410975078463
2.720468890892696,-0.006543354763536975
2.724376314998497,-0.006159915111807821
2.728283739104298,-0.005708238784003784
2.732191163210099,-0.00513673378441807
2.7360985873159,-0.004381645685251588
2.740006011421701,-0.003385877786872003
2.743913435527502,-0.002098991117813735
2.747820859633303,-0.0004772044347779586
2.751728283739104,0.001516605777367396
2.755635707844905,0.003912905305587647
2.759543131950706,0.0067355022086813595
2.7634505560565072,0.01000154681728034
2.7673579801623083,0.013721531733849632
2.7712654042681093,0.017899291832687535
2.7751728283739103,0.0225320042599256
2.7790802524797114,0.027610188433528606
2.7829876765855124,0.03311770604329459
2.7868951006913134,0.03905092189149382
2.7908025247971144,0.0453731862186855
2.7947099489029155,0.051869099820053235
2.7986173730087165,0.05832729165353333
2.8025247971145175,0.06455562945450093
2.8064322212203185,0.07038121973577008
2.8103396453261196,0.07565040778759363
2.8142470694319206,0.08022877767766329
2.8181544935377216,0.08400115225110964
2.8220619176435227,0.0868715931305021
2.8259693417493237,0.08876340071584893
2.8298767658551247,0.08961911418459725
2.8337841899609257,0.08940051149163303
2.8376916140667268,0.08808860936928108
2.841599038172528,0.08568366332730509
2.845506462278329,0.08220455000050651
2.84941388638413,0.0777052473265255
2.853321310489931,0.07237970811269422
2.857228734595732,0.06644173656900744
2.861136158701533,0.06008661355219784
2.865043582807334,0.05349109656573603
2.868951006913135,0.04681341975983056
2.872858431018936,0.0401932939314279
2.876765855124737,0.033751906524212436
2.880673279230538,0.027591921628606512
2.884580703336339,0.021797479981770354
2.88848812744214,0.01643419896760219
2.892395551547941,0.011549172616738074
2.896302975653742,0.007170971606552098
2.900210399759543,0.003309643261156181
2.9041178238653442,-4.3288448599729246e-05
2.9080252479711453,-0.0028673551246383637
2.9119326720769463,-0.005172494045019419
2.9158400961827473,-0.007138659641128996
2.9197475202885483,-0.008913033016195232
2.9236549443943494,-0.010602597154756708
2.9275623685001504,-0.01227413692266245
2.9314697926059514,-0.01395423906707194
2.9353772167117524,-0.015629292216455096
2.9392846408175535,-0.017245486880592287
2.9431920649233545,-0.01870881545057432
2.9470994890291555,-0.01988507219880247
2.9510069131349566,-0.020599853278988427
2.9549143372407576,-0.020638556726154344
2.9588217613465586,-0.019820264036425637
2.9627291854523596,-0.017871333220201138
2.9666366095581607,-0.01452702149306744
2.9705440336639617,-0.009710675088551413
2.9744514577697627,-0.0035338534942678072
2.9783588818755637,0.0037036705480807224
2.9822663059813648,0.011513911042703624
2.986173730087166,0.019221608781521526
2.990081154192967,0.025983768436093388
2.993988578298768,0.03076988189407103
2.997896002404569,0.03283806168983076
3.00180342651037,0.031867322306077195
3.005710850616171,0.027957580173843224
3.009618274721972,0.021629653672490038
3.013525698827773,0.013788841148467231
3.017433122933574,0.005365656415428931
3.021340547039375,-0.0028106830944421533
3.025247971145176,-0.010101575826802139
3.029155395250977,-0.016076230693227066
3.033062819356778,-0.02051166707121292
3.036970243462579,-0.023392714804175607
3.04087766756838,-0.02477975716214133
3.044785091674181,-0.024888323448436448
3.0486925157799822,-0.024100691236537523
3.0525999398857833,-0.02274742473967223
3.0565073639915843,-0.02110694501814409
3.0604147880973853,-0.019405529979332464
3.0643222122031863,-0.017817314377692548
3.0682296363089874,-0.01646428981475542
3.0721370604147884,-0.015416304739127971
3.0760444845205894,-0.014679837233094135
3.0799519086263905,-0.014175303358359887
3.0838593327321915,-0.01384388943839863
3.0877667568379925,-0.013637772844984897
3.0916741809437935,-0.013516309850306985
3.0955816050495946,-0.013446035626966942
3.0994890291553956,-0.01340066424798057
3.1033964532611966,-0.013361088686777428
3.1073038773669976,-0.013315380817200833
3.1112113014727987,-0.01325879141350785
3.1151187255785997,-0.013193750150369311
3.1190261496844007,-0.01312986560286979
3.1229335737902018,-0.013076618857180188
3.126840997896003,-0.013023636010627485
3.130748422001804,-0.01297012690682525
3.134655846107605,-0.012916093396095143
3.138563270213406,-0.01286124302413467
3.142470694319207,-0.012804989032017187
3.146378118425008,-0.012746450356191904
3.150285542530809,-0.012684451628483877
3.15419296663661,-0.012617523176094018
3.158100390742411,-0.012543901021599083
3.162007814848212,-0.012461526882951685
3.165915238954013,-0.012368048173480278
3.169822663059814,-0.012260818001889178
3.173730087165615,-0.01213689517225854
3.177637511271416,-0.01199304418404438
3.181544935377217,-0.01182569789406667
3.185452359483018,-0.011619543491742665
3.189359783588819,-0.011369298265105618
3.1932672076946202,-0.01108229069937211
3.1971746318004213,-0.01076574407410762
3.2010820559062223,-0.01042677646322652
3.2049894800120233,-0.010072400734992066
3.2088969041178244,-0.00970952455201641
3.2128043282236254,-0.009344950371260598
3.2167117523294264,-0.008985375444034563
3.2206191764352274,-0.00863739181599713
3.2245266005410285,-0.008307486327156017
3.2284340246468295,-0.008002040611867833
3.2323414487526305,-0.007727331098838078
3.2362488728584315,-0.007489529011121141
3.2401562969642326,-0.007294700366120308
3.2440637210700336,-0.007148805975587751
3.2479711451758346,-0.007057701445624538
3.2518785692816357,-0.007027137176680623
3.2557859933874367,-0.007062758363554856
3.2596934174932377,-0.007170104995394976
3.2636008415990387,-0.007353865811598962
3.2675082657048398,-0.00759539731715657
3.271415689810641,-0.007874745912404163
3.275323113916442,-0.008179540457073054
3.279230538022243,-0.008498576512282516
3.283137962128044,-0.008821816340539777
3.287045386233845,-0.009140388905740022
3.290952810339646,-0.009446589873166399
3.294860234445447,-0.009733881609490005
3.298767658551248,-0.009996893182769903
3.302675082657049,-0.010231420362453107
3.30658250676285,-0.010434425619374592
3.310489930868651,-0.01060403812575729
3.314397354974452,-0.01073955375521209
3.318304779080253,-0.010841435082737836
3.322212203186054,-0.010911311384721335
3.326119627291855,-0.010951978638937349
3.330027051397656,-0.010967399524548595
3.3339344755034572,-0.01096270342210575
3.3378418996092574,-0.010944186413547451
3.3417493237150584,-0.010919311282200283
3.3456567478208594,-0.010895576210576822
3.3495641719266604,-0.01086932884321213
3.3534715960324615,-0.010839315711386842
3.3573790201382625,-0.0108061453703915
3.3612864442440635,-0.010770379497183246
3.3651938683498646,-0.01073253289038583
3.3691012924556656,-0.010693073470289607
3.3730087165614666,-0.010652422278851539
3.3769161406672676,-0.010610953479695191
3.3808235647730687,-0.010568994358110737
3.3847309888788697,-0.010526825321054954
3.3886384129846707,-0.010484679897151227
3.3925458370904717,-0.010442744736689543
3.3964532611962728,-0.0104011596116265
3.400360685302074,-0.010360017415585298
3.404268109407875,-0.01031936416385574
3.408175533513676,-0.010279198993394243
3.412082957619477,-0.01023947416282382
3.415990381725278,-0.010200095052434098
3.419897805831079,-0.010160920164181304
3.42380522993688,-0.010121761121688274
3.427712654042681,-0.010082409486821627
3.431620078148482,-0.010043090604994849
3.435527502254283,-0.01000392497780582
3.439434926360084,-0.009964912015611479
3.443342350465885,-0.009926051130644077
3.447249774571686,-0.009887341737011179
3.451157198677487,-0.009848783250695655
3.455064622783288,-0.00981037508955569
3.458972046889089,-0.00977211667332478
3.4628794709948902,-0.009734007423611732
3.4667868951006913,-0.009696046763900661
3.4706943192064923,-0.009658234119550997
3.4746017433122933,-0.009620568917797478
3.4785091674180943,-0.009583050587750157
3.4824165915238954,-0.009545678560394392
3.4863240156296964,-0.009508452268590858
3.4902314397354974,-0.009471371147075539
3.4941388638412985,-0.009434434632459727
3.4980462879470995,-0.00939764216323003
3.5019537120529005,-0.009360993179748362
3.5058611361587015,-0.009324487124251952
3.5097685602645026,-0.00928812344085334
3.5136759843703036,-0.009251901575540376
3.5175834084761046,-0.009215820976176216
3.5214908325819057,-0.009179881092499337
3.5253982566877067,-0.009144081376123521
3.5293056807935077,-0.009108421280537859
3.5332131048993087,-0.00907290026110676
3.5371205290051098,-0.009037517775069935
3.541027953110911,-0.009002273281542416
3.544935377216712,-0.008967166241514538
3.548842801322513,-0.00893219611785195
3.552750225428314,-0.008897362375295615
3.556657649534115,-0.0088626644804618
3.560565073639916,-0.00882810190184209
3.564472497745717,-0.008793674109803378
3.568379921851518,-0.008759380576587867
3.572287345957319,-0.008725220776313072
3.57619477006312,-0.008691194184971822
3.580102194168921,-0.00865730028043225
3.584009618274722,-0.00862353854243781
3.587917042380523,-0.008589896347253781
3.591824466486324,-0.008556354725636638
3.595731890592125,-0.008522930435754335
3.599639314697926,-0.00848963822779632
3.6035467388037272,-0.00845648932085744
3.6074541629095283,-0.00842349140293794
3.6113615870153293,-0.008390648630943456
3.6152690111211303,-0.008357961630685029
3.6191764352269313,-0.008325427496879095
3.6230838593327324,-0.008293039793147487
3.6269912834385334,-0.008260788552017439
3.6308987075443344,-0.008228660274921577
3.6348061316501354,-0.00819663793219793
3.6387135557559365,-0.00816470096308992
3.6426209798617375,-0.008132825275746372
3.6465284039675385,-0.008100983247221501
3.6504358280733396,-0.008069143723474928
3.6543432521791406,-0.008037272019371666
3.6582506762849416,-0.008005329918682129
3.6621581003907426,-0.007972446353035862
3.6660655244965437,-0.007934296010546502
3.6699729486023447,-0.007893492148234073
3.6738803727081457,-0.007852760680696683
3.6777877968139467,-0.007813498473907079
3.6816952209197478,-0.0077757733452126394
3.685602645025549,-0.007738324063335382
3.68951006913135,-0.007698560348371956
3.693417493237151,-0.007652562871793652
3.697324917342952,-0.007595083256446391
3.701232341448753,-0.007519544076550732
3.705139765554554,-0.0074180388577018705
3.709047189660355,-0.007281332076869635
3.712954613766156,-0.007098859162398491
3.716862037871957,-0.006858726494007541
3.720769461977758,-0.006547711402790522
3.724676886083559,-0.006162547151731386
3.72858431018936,-0.00570571306863317
3.732491734295161,-0.0051153909687686955
3.736399158400962,-0.004330710091695894
3.740306582506763,-0.003297132555688768
3.744214006612564,-0.001966453357737396
3.7481214307183652,-0.00029680037354793375
3.7520288548241663,0.001747365642457391
3.7559362789299673,0.004195251057140273
3.7598437030357683,0.007069729358646338
3.7637511271415693,0.010387341156405116
3.7676585512473704,0.014158294181130092
3.7715659753531714,0.018386463284818657
3.7754733994589724,0.02306939044075212
3.7793808235647735,0.028198284743495748
3.7832882476705745,0.033758022408898684
3.7871956717763755,0.03977355609273611
3.7911030958821765,0.04619040709802916
3.7950105199879776,0.05276720904727651
3.7989179440937786,0.05928021901754714
3.8028253681995796,0.0655280960540688
3.8067327923053806,0.07133190117022806
3.8106402164111817,0.07653509734757027
3.8145476405169827,0.08100354953579966
3.8184550646227837,0.08462552465277914
3.8223624887285848,0.08731169158453049
3.826269912834386,0.08899512118523434
3.830177336940187,0.08963128627723
3.834084761045988,0.08919806165101568
3.837992185151789,0.08769572406524839
3.84189960925759,0.08514695224674389
3.845807033363391,0.08159682689047676
3.849714457469192,0.07711283065958038
3.853621881574993,0.0717894914679929
3.857529305680794,0.06581066797808836
3.861436729786595,0.05938917885829169
3.865344153892396,0.05271696228528408
3.869251577998197,0.045964880726568395
3.873159002103998,0.039282720940468994
3.877066426209799,0.03279919397613185
3.8809738503156,0.026621935173524534
3.884881274421401,0.02083750416343609
3.888788698527202,0.015511384867477246
3.8926961226330032,0.010687985498080255
3.8966035467388043,0.006390638558498918
3.9005109708446053,0.002621600842808658
3.9044183949504063,-0.0006379465640935361
3.9083258190562074,-0.003427898286489206
3.9122332431620084,-0.005809224657838133
3.9161406672678094,-0.007863971720778684
3.9200480913736104,-0.009645929209189143
3.9239555154794115,-0.011246722697390965
3.9278629395852125,-0.012786761306331298
3.9317703636910135,-0.01433224305015077
3.9356777877968145,-0.01589513568142186
3.9395852119026156,-0.01743317669114888
3.9434926360084166,-0.018849873308767973
3.9474000601142176,-0.019994502502147116
3.9513074842200187,-0.02066211097758614
3.9552149083258197,-0.020677435910757155
3.9591223324316207,-0.019826364878936777
3.9630297565374217,-0.01772515252670358
3.9669371806432228,-0.014162871228565597
3.970844604749024,-0.009111491920519757
3.974752028854825,-0.0027258841000519056
3.978659452960626,0.004656184173863213
3.982566877066427,0.012514046280761928
3.986474301172228,0.020144137038691688
3.990381725278029,0.026658138903559368
3.99428914938383,0.031105682819026686
3.998196573489631,0.03284250457467007
4.002103997595432,0.031600065828629925
4.006011421701232,0.02748314438867372
4.009918845807033,0.020969834212191518
4.013826269912834,0.01291154540620173
4.017733694018635,0.004457518900887763
4.021641118124436,-0.0036068484650787283
4.025548542230237,-0.010742218839802661
4.029455966336038,-0.01656254471600961
4.033363390441839,-0.02085332574649513
4.03727081454764,-0.023571608744124742
4.041178238653441,-0.024845987681833957
4.045085662759242,-0.024893588864922715
4.0489930868650434,-0.02398551494288124
4.0529005109708445,-0.02250435412147847
4.0568079350766455,-0.02076663382804907
4.0607153591824465,-0.019019986382668146
4.0646227832882476,-0.01744314899815122
4.068530207394049,-0.016145963780054236
4.07243763149985,-0.015169377726673577
4.076345055605651,-0.014485442729046049
4.080252479711452,-0.014008920613844988
4.084159903817253,-0.013680155539063198
4.088067327923054,-0.013463915549527423
4.091974752028855,-0.01332937697131353
4.095882176134656,-0.01325010301677927
4.099789600240457,-0.013204043784564287
4.103697024346258,-0.013173536259590115
4.107604448452059,-0.01314530431306017
4.11151187255786,-0.013110458702459764
4.115419296663661,-0.013064497071556103
4.119326720769462,-0.013007303950398267
4.123234144875263,-0.012943150755317247
4.127141568981064,-0.012880695788925901
4.131048993086865,-0.012827705362573156
4.134956417192666,-0.012775443332492128
4.138863841298467,-0.01272219189436337
4.142771265404268,-0.01266699489222203
4.146678689510069,-0.012608705762510476
4.15058611361587,-0.012545987534078302
4.154493537721671,-0.012477312828182329
4.158400961827472,-0.012400963858486602
4.162308385933273,-0.012315032431062392
4.166215810039074,-0.012217419944388195
4.170123234144875,-0.012105837389349727
4.174030658250676,-0.011977805349239937
4.177938082356477,-0.011830653999758994
4.181845506462278,-0.011661523109014294
4.185752930568079,-0.011467362037520456
4.18966035467388,-0.011244929738199325
4.1935677787796815,-0.010990794756379972
4.1974752028854825,-0.0106951267441843
4.2013826269912835,-0.010349198438516201
4.2052900510970845,-0.009968179394191569
4.209197475202886,-0.009566962423934879
4.213104899308687,-0.009159201051116662
4.217012323414488,-0.008757309509753501
4.220919747520289,-0.00837246274450804
4.22482717162609,-0.008014596410688964
4.228734595731891,-0.007692406874251029
4.232642019837692,-0.007413351211795032
4.236549443943493,-0.00718364721056783
4.240456868049294,-0.007008273368462335
4.244364292155095,-0.00689096889401751
4.248271716260896,-0.006834233706418376
4.252179140366697,-0.006839328435496004
4.256086564472498,-0.006906274421727523
4.259993988578299,-0.007033853716236117
4.2639014126841,-0.007219609080791016
4.267808836789901,-0.007459843987807518
4.271716260895702,-0.007743540274490661
4.275623685001503,-0.008049536123948204
4.279531109107304,-0.008366961336811252
4.283438533213105,-0.008686397462151017
4.287345957318906,-0.008999544484366963
4.291253381424707,-0.009299220823186797
4.295160805530508,-0.009579363333666475
4.299068229636309,-0.009835027306190205
4.30297565374211,-0.01006238646647044
4.306883077847911,-0.01025873297554788
4.310790501953712,-0.010422477429791476
4.314697926059513,-0.010553148860898424
4.318605350165314,-0.01065139473589417
4.322512774271115,-0.01071898095713241
4.326420198376916,-0.010758791862295083
4.330327622482717,-0.010774830224392382
4.334235046588518,-0.01077221725176274
4.3381424706943195,-0.01075719258807285
4.3420498948001205,-0.010737114312317638
4.3459573189059215,-0.01071588941305764
4.3498647430117225,-0.010690124880335796
4.353772167117524,-0.010660445772469895
4.357679591223325,-0.010627517450380434
4.361587015329126,-0.010591951167407177
4.365494439434927,-0.010554304069309144
4.369401863540728,-0.010515079194264617
4.373309287646529,-0.01047472547287113
4.37721671175233,-0.01043363772814549
4.381124135858131,-0.010392156675523748
4.385031559963932,-0.010350568922861226
4.388938984069733,-0.010309106970432502
4.392846408175534,-0.010267949210931413
4.396753832281335,-0.010227219929471055
4.400661256387136,-0.010186989303583784
4.404568680492937,-0.010147273403221217
4.408476104598738,-0.010108034190754229
4.412383528704539,-0.010069179520972953
4.41629095281034,-0.010030563141086786
4.420198376916141,-0.009991984690724381
4.424105801021942,-0.00995319915539048
4.428013225127743,-0.009914384510040185
4.431920649233544,-0.009875721104709226
4.435828073339345,-0.009837208361542844
4.439735497445146,-0.00979884570437187
4.443642921550947,-0.009760632558712715
4.447550345656748,-0.009722568351767377
4.451457769762549,-0.009684652512423435
4.45536519386835,-0.00964688447125406
4.459272617974151,-0.009609263660517996
4.463180042079952,-0.009571789514159582
4.467087466185753,-0.009534461467808737
4.470994890291554,-0.009497278958780962
4.474902314397355,-0.009460241426077346
4.4788097385031564,-0.009423348310384562
4.4827171626089575,-0.009386599054074863
4.4866245867147585,-0.009349993101206093
4.4905320108205595,-0.009313529897521678
4.4944394349263606,-0.009277208890450623
4.498346859032162,-0.009241029529107526
4.502254283137963,-0.009204991264292564
4.506161707243764,-0.0091690935484915
4.510069131349565,-0.00913333583587568
4.513976555455366,-0.009097717582302036
4.517883979561167,-0.009062238245313083
4.521791403666968,-0.009026897284136921
4.525698827772769,-0.008991694159687235
4.52960625187857,-0.008956628334563295
4.533513675984371,-0.008921699273049952
4.537421100090172,-0.008886906441117644
4.541328524195973,-0.008852249306422392
4.545235948301774,-0.008817727338305804
4.549143372407575,-0.00878334000779507
4.553050796513376,-0.008749086787602967
4.556958220619177,-0.008714967152127849
4.560865644724978,-0.008680980577453664
4.564773068830779,-0.00864712654134994
4.56868049293658,-0.008613404523271787
4.572587917042381,-0.008579814004359901
4.576495341148182,-0.008546354467440568
4.580402765253983,-0.008513024831197962
4.584310189359784,-0.00847980586978838
4.588217613465585,-0.008446698421249727
4.592125037571386,-0.008413714357065142
4.596032461677187,-0.008380863160823706
4.599939885782988,-0.008348151928220424
4.603847309888789,-0.00831558536705624
4.60775473399459,-0.008283165797238028
4.611662158100391,-0.008250893150778598
4.615569582206192,-0.008218764971796692
4.619477006311993,-0.008186776416516984
4.6233844304177945,-0.00815492025327008
4.6272918545235955,-0.008123186862492521
4.6311992786293965,-0.008091564236726783
4.6351067027351975,-0.008060037980621272
4.639014126840999,-0.00802859131093033
4.6429215509468,-0.007997205056514226
4.646828975052601,-0.00796585765833917
4.650736399158402,-0.0079345251694773
4.654643823264203,-0.007903181255106688
4.658551247370004,-0.007871538492495389
4.662458671475805,-0.007835618297742345
4.666366095581606,-0.007796841143751456
4.670273519687406,-0.007757901108297985
4.674180943793207,-0.007720350230139499
4.678088367899008,-0.0076845985090159144
4.681995792004809,-0.007649913905649465
4.68590321611061,-0.007614422341744709
4.689810640216411,-0.0075751076999885335
4.693718064322212,-0.007527811824050147
4.697625488428013,-0.007467234518581088
4.701532912533814,-0.007386933549215217
4.705440336639615,-0.007279324642568722
4.709347760745416,-0.0071356814862401155
4.713255184851217,-0.006946135728810237
4.717162608957018,-0.00669967697984225
4.721070033062819,-0.006388095378918297
4.72497745716862,-0.0060230576371503785
4.728884881274421,-0.005557206265248409
4.732792305380222,-0.004933870062107689
4.736699729486023,-0.0041011797627490566
4.740607153591824,-0.00301206803831888
4.744514577697625,-0.0016242694960890633
4.748422001803426,9.967932054295511e-05
4.7523294259092275,0.0021924399320542055
4.7562368500150285,0.004681871922796184
4.7601442741208295,0.007591032940994856
4.7640516982266305,0.010938178698750646
4.767959122332432,0.014736762972038452
4.771866546438233,0.018995437600707626
4.775773970544034,0.023718052488482022
4.779681394649835,0.028903655602959905
4.783588818755636,0.03455222482459838
4.787496242861437,0.04062332670178406
4.791403666967238,0.04694515561119039
4.795311091073039,0.053341256406520716
4.79921851517884,0.05964480254585362
4.803125939284641,0.06569859609164294
4.807033363390442,0.07135506771071773
4.810940787496243,0.07647627667428236
4.814848211602044,0.08093391085791639
4.818755635707845,0.08460928674157467
4.822663059813646,0.08739334940958726
4.826570483919447,0.08918667255065954
4.830477908025248,0.08989945845787205
4.834385332131049,0.08945153802868067
4.83829275623685,0.0877757850623853
4.842200180342651,0.084936612219586
4.846107604448452,0.08109845549672541
4.850015028554253,0.07642252498754852
4.853922452660054,0.07106491186902689
4.857829876765855,0.06517658840135872
4.861737300871656,0.05890340792796874
4.865644724977457,0.05238610487550834
4.869552149083258,0.045760294753855464
4.873459573189059,0.03915647415611465
4.87736699729486,0.03270002075861704
4.881274421400661,0.02651119332092039
4.885181845506462,0.02070513168580901
4.889089269612263,0.015391984330581795
4.8929966937180644,0.01075676421268051
4.8969041178238655,0.006795858836621925
4.9008115419296665,0.003369648676275299
4.9047189660354675,0.0003577329363451641
4.908626390141269,-0.0023410704476286605
4.91253381424707,-0.0048087248092710914
4.916441238352871,-0.007107974751371746
4.920348662458672,-0.009282346145885002
4.924256086564473,-0.011356146133929938
4.928163510670274,-0.013334463125790345
4.932070934776075,-0.015203166800914745
4.935978358881876,-0.016928908107916425
4.939885782987677,-0.01845911926457333
4.943793207093478,-0.019722013757828137
4.947700631199279,-0.020626586343788292
4.95160805530508,-0.02106261304772597
4.955515479410881,-0.020660018247640816
4.959422903516682,-0.017819183842007143
4.963330327622483,-0.012970350027164176
4.967237751728284,-0.006887537706399879
4.971145175834085,-0.0002555463453806292
4.975052599939886,0.00633004602784875
4.978960024045687,0.012362882822865073
4.982867448151488,0.01742582888686669
4.986774872257289,0.02119097050467355
4.99068229636309,0.023419615398727195
4.994589720468891,0.02396229272909079
4.998497144574692,0.022758753093448984
5.002404568680493,0.019837968527108098
5.006311992786294,0.015318132502995963
5.010219416892095,0.009406659931662047
5.014126840997896,0.0024001871612774894
5.018034265103697,-0.005315428022365131
5.021941689209498,-0.013164303469421821
5.025849113315299,-0.02001576120628916
5.0297565374211,-0.025529643353573245
5.033663961526901,-0.02960177371811957
5.0375713856327025,-0.03221579144577567
5.0414788097385035,-0.033443151021391046
5.0453862338443045,-0.03344312226881724
5.0492936579501055,-0.03246279035090777
5.053201082055907,-0.030837055769518215
5.057108506161708,-0.028987470935513616
5.061015930267509,-0.027253509322649083
5.06492335437331,-0.025717018290225373
5.068830778479111,-0.024419907215327108
5.072738202584912,-0.023383698317134733
5.076645626690713,-0.022609526656924537
5.080553050796514,-0.022078140138068626
5.084460474902315,-0.02174989950603494
5.088367899008116,-0.02156477834838725
5.092275323113917,-0.021442363094785154
5.096182747219718,-0.021323543179967177
5.100090171325519,-0.02121997198729112
5.10399759543132,-0.021127549752894617
5.107905019537121,-0.021042553509625944
5.111812443642922,-0.02096188543982391
5.115719867748723,-0.02088307287531782
5.119627291854524,-0.0208042682974275
5.123534715960325,-0.020724249336963287
5.127442140066126,-0.020642418774226033
5.131349564171927,-0.0205588045390071
5.135256988277728,-0.020474059710588362
5.139164412383529,-0.020390555788395267
5.14307183648933,-0.02031733183245858
5.146979260595131,-0.02025005293199818
5.150886684700932,-0.020181907091302898
5.154794108806733,-0.02010681911976535
5.158701532912534,-0.020019450631881982
5.162608957018335,-0.01991520004725304
5.166516381124136,-0.019790202590582593
5.170423805229937,-0.019641330291678513
5.174331229335738,-0.019466191985452484
5.178238653441539,-0.019263133311920005
5.1821460775473405,-0.019031236716200387
5.1860535016531415,-0.018770321448516748
5.1899609257589425,-0.018480943564196016
5.1938683498647435,-0.018164395923668943
5.197775773970545,-0.017822708192470078
5.201683198076346,-0.017458646841237786
5.205590622182147,-0.017075715145714248
5.209498046287948,-0.01667815318674545
5.213405470393749,-0.0162709378502812
5.21731289449955,-0.015859782827375102
5.221220318605351,-0.015451138614184583
5.225127742711152,-0.015052192511970881
5.229035166816953,-0.014688997053051756
5.232942590922754,-0.014389253446882582
5.236850015028555,-0.014151764758667888
5.240757439134356,-0.013974752979008555
5.244664863240157,-0.013856031446440095
5.248572287345958,-0.013793004847432642
5.252479711451759,-0.013782669216390965
5.25638713555756,-0.013821611935654449
5.260294559663361,-0.013906011735497114
5.264201983769162,-0.014031638694127598
5.268109407874963,-0.014193854237689173
5.272016831980764,-0.014387611140259736
5.275924256086565,-0.014607453523851803
5.279831680192366,-0.014847516858412525
5.283739104298167,-0.015101527961823678
5.287646528403968,-0.01536280499990166
5.291553952509769,-0.015624257486397501
5.29546137661557,-0.01587838628299685
5.299368800721371,-0.01611728359931999
5.303276224827172,-0.016332632992921824
5.307183648932973,-0.016515709369291892
5.311091073038774,-0.01665737898185434
5.314998497144575,-0.01675088472265062
5.318905921250376,-0.016812985430986766
5.3228133453561775,-0.01685102713966694
5.3267207694619785,-0.016868134341835397
5.3306281935677795,-0.0168672261674095
5.3345356176735805,-0.016851016383079672
5.338443041779382,-0.01682201339230943
5.342350465885183,-0.016782520235335385
5.346257889990984,-0.016734634589167213
5.350165314096785,-0.01668024876758768
5.354072738202586,-0.016621049721152633
5.357980162308387,-0.016558519037191015
5.361887586414188,-0.016493932939804837
5.365795010519989,-0.0164283622898692
5.36970243462579,-0.016362672585032288
5.373609858731591,-0.01629752395971537
5.377517282837392,-0.016233371185112797
5.381424706943193,-0.016170463669192
5.385332131048994,-0.016108845456693496
5.389239555154795,-0.016048355229130888
5.393146979260596,-0.01598862630479086
5.397054403366397,-0.01592908663873318
5.400961827472198,-0.0158689588227907
5.404869251577999,-0.015807482052142267
5.4087766756838,-0.01574585463719958
5.412684099789601,-0.01568446471306049
5.416591523895402,-0.015623311605458674
5.420498948001203,-0.015562394632565075
5.424406372107004,-0.015501713104987914
5.428313796212805,-0.015441266325772682
5.432221220318606,-0.015381053590402134
5.436128644424407,-0.0153210741867963
5.440036068530208,-0.015261327395312477
5.443943492636009,-0.015201812488745236
5.44785091674181,-0.015142528732326415
5.451758340847611,-0.015083475383725125
5.455665764953412,-0.015024651693047744
5.459573189059213,-0.014966056902837923
5.463480613165014,-0.01490769024807658
5.4673880372708155,-0.014849550956181904
5.4712954613766165,-0.01479163824700936
5.4752028854824175,-0.014733951332851672
5.4791103095882185,-0.014676489418438847
5.48301773369402,-0.01461925170093815
5.486925157799821,-0.014562237369954125
5.490832581905622,-0.014505445607528582
5.494740006011423,-0.014448875588140602
5.498647430117224,-0.014392526478706537
5.502554854223025,-0.014336397438580008
5.506462278328826,-0.014280487619551908
5.510369702434627,-0.014224796165850397
5.514277126540428,-0.014169322214140908
5.518184550646229,-0.014114064893526143
5.52209197475203,-0.014059023325546075
5.525999398857831,-0.014004196624177944
5.529906822963632,-0.013949583895836266
5.533814247069433,-0.013895184239372822
5.537721671175234,-0.013840996746076665
5.541629095281035,-0.01378702049967412
5.545536519386836,-0.013733254576328778
5.549443943492637,-0.013679698044641503
5.553351367598438,-0.01362634153754304
5.557258791704239,-0.013573135442689139
5.56116621581004,-0.013520089138526545
5.565073639915841,-0.013467221549381781
5.568981064021642,-0.013414549332279653
5.572888488127443,-0.013362086876943258
5.576795912233244,-0.013309846305793982
5.580703336339045,-0.013257837473951496
5.584610760444846,-0.013206067969233761
5.588518184550647,-0.013154543112157023
5.592425608656448,-0.013103265955935821
5.596333032762249,-0.013052237286482977
5.60024045686805,-0.013001455622409603
5.604147880973851,-0.012950917215025101
5.608055305079652,-0.012900616048337154
5.6119627291854535,-0.012850543839051742
5.6158701532912545,-0.012800690036573126
5.6197775773970555,-0.012751041823003859
5.6236850015028566,-0.012701584113144778
5.627592425608658,-0.012652299554495011
5.631499849714459,-0.012603168527251974
5.63540727382026,-0.01255416914431137
5.639314697926061,-0.01250527725126719
5.643222122031862,-0.01245646642641171
5.647129546137663,-0.012407707980735498
5.651036970243464,-0.012358970957927411
5.654944394349265,-0.01231022213437459
5.658851818455066,-0.012261426019162466
5.662759242560867,-0.012212544854074754
5.666666666666668,-0.01216065335047369
5.670574090772467,-0.012102712141622384
5.674481514878268,-0.012042708505986346
5.678388938984069,-0.011983220058423127
5.68229636308987,-0.011925204168849854
5.686203787195671,-0.01186799796224326
5.690111211301472,-0.011809318318639687
5.694018635407273,-0.011745261873135075
5.697926059513074,-0.011670305015884975
5.701833483618875,-0.011577303892104538
5.705740907724676,-0.011457494402068525
5.709648331830477,-0.011300492201111297
5.713555755936278,-0.011094292699626822
5.717463180042079,-0.010825271063068674
5.7213706041478805,-0.010478182211950033
5.7252780282536815,-0.01003616082184368
5.7291854523594825,-0.009506325657083502
5.7330928764652835,-0.008868849871732205
5.737000300571085,-0.008048448469190658
5.740907724676886,-0.006978416152336873
5.744815148782687,-0.005601051115397132
5.748722572888488,-0.0038676550439459877
5.752629996994289,-0.0017385331149062603
5.75653742110009,0.0008170060034509638
5.760444845205891,0.0038206501515063284
5.764352269311692,0.007285083678292212
5.768259693417493,0.011213987441492716
5.772167117523294,0.01560203880744369
5.776074541629095,0.020434911651132693
5.779981965734896,0.025689276356199043
5.783889389840697,0.031332799814933754
5.787796813946498,0.03732414542827962
5.791704238052299,0.04363350896171336
5.7956116621581,0.0501058648227896
5.799519086263901,0.05652008310044944
5.803426510369702,0.06267610547688779
5.807333934475503,0.06839494577349627
5.811241358581304,0.07351868995086319
5.815148782687105,0.07791049610877362
5.819056206792906,0.08145459448620938
5.822963630898707,0.08405628746134892
5.826871055004508,0.08564194955156751
5.830778479110309,0.08615902741343703
5.83468590321611,0.0855760398427262
5.838593327321911,0.0838825777744004
5.842500751427712,0.08108930428262176
5.846408175533513,0.07722315703270043
5.850315599639314,0.07242781480242103
5.854223023745115,0.0669112654211589
5.858130447850916,0.06086606016412654
5.862037871956717,0.05446903172718047
5.8659452960625185,0.04788129422682122
5.8698527201683195,0.041248243200193324
5.8737601442741205,0.0346995556050853
5.8776675683799215,0.02834918981992974
5.881574992485723,0.022295385643803185
5.885482416591524,0.016620664296426252
5.889389840697325,0.01139182841816351
5.893297264803126,0.006659962070023562
5.897204688908927,0.002460430733659022
5.901112113014728,-0.001194910204940202
5.905019537120529,-0.004347680834932735
5.90892696122633,-0.007057213116571266
5.912834385332131,-0.009386483379828538
5.916741809437932,-0.011402148817652327
5.920649233543733,-0.013174547485965436
5.924556657649534,-0.014777698303665699
5.928464081755335,-0.016289301052625965
5.932371505861136,-0.01779073637769414
5.936278929966937,-0.019359709126758263
5.940186354072738,-0.020908811403775193
5.944093778178539,-0.022266309114243474
5.94800120228434,-0.023253492901010548
5.951908626390141,-0.02368468541478196
5.955816050495942,-0.02336724131412137
5.959723474601743,-0.02210154726545055
5.963630898707544,-0.019681021943049375
5.967538322813345,-0.01589229729603804
5.971445746919146,-0.010618093159094854
5.975353171024947,-0.004068627194497599
5.979260595130748,0.003361240870963709
5.983168019236549,0.011127769378722337
5.98707544334235,0.018538334738434893
5.990982867448151,0.024751431427981273
5.994890291553952,0.028776671993464703
5.998797715659753,0.029697228209083524
6.002705139765554,0.027581021157450314
6.0066125638713554,0.02289099573417911
6.0105199879771565,0.016206788234077407
6.0144274120829575,0.00822472626213076
6.0183348361887585,-0.00024217126649724377
6.02224226029456,-0.00826419412646491
6.026149684400361,-0.015081423755303056
6.030057108506162,-0.02050151986637662
6.033964532611963,-0.024417720506829256
6.037871956717764,-0.026829418357825142
6.041779380823565,-0.027842243981245258
6.045686804929366,-0.027668065819687435
6.049594229035167,-0.02662495338234593
6.053501653140968,-0.025085531234599927
6.057409077246769,-0.02333101862325607
6.06131650135257,-0.02157767071738912
6.065223925458371,-0.019987626472778068
6.069131349564172,-0.01866890863190613
6.073038773669973,-0.01767542372396076
6.076946197775774,-0.017006962064833646
6.080853621881575,-0.01660919775712069
6.084761045987376,-0.016373688690122054
6.088668470093177,-0.01618745029958526
6.092575894198978,-0.016052347189767273
6.096483318304779,-0.015954327925830993
6.10039074241058,-0.015880213984233258
6.104298166516381,-0.015819361379691366
6.108205590622182,-0.01576366066518309
6.112113014727983,-0.01570753693194666
6.116020438833784,-0.01564794980948078
6.119927862939585,-0.015584393465544605
6.123835287045386,-0.015518896606157774
6.127742711151187,-0.015455702060934292
6.131650135256988,-0.015394388754084786
6.135557559362789,-0.015333028138932808
6.13946498346859,-0.0152705157884078
6.143372407574391,-0.015205616444828778
6.147279831680192,-0.015136964019904338
6.1511872557859935,-0.015063061594732644
6.1550946798917945,-0.014982281419801437
6.1590021039975955,-0.01489286491498803
6.1629095281033965,-0.01479292266955931
6.166816952209198,-0.014680434442171743
6.170724376314999,-0.014553249160871357
6.1746318004208,-0.014409084923093767
6.178539224526601,-0.014245528995664154
6.182446648632402,-0.014060037814797276
6.186354072738203,-0.013849936986097464
6.190261496844004,-0.013612421284558623
6.194168920949805,-0.013344554654564229
6.198076345055606,-0.01304327020988734
6.201983769161407,-0.0126950583168942
6.205891193267208,-0.012297202053517307
6.209798617373009,-0.011869569661140004
6.21370604147881,-0.011430285301101746
6.217613465584611,-0.010995598026179809
6.221520889690412,-0.01057988178058929
6.225428313796213,-0.010195635399983114
6.229335737902014,-0.009853482611452021
6.233243162007815,-0.009562172033524574
6.237150586113616,-0.009328577176167164
6.241058010219417,-0.009157696440783996
6.244965434325218,-0.009052653120217104
6.248872858431019,-0.009014695398746338
6.25278028253682,-0.009043196352089375
6.256687706642621,-0.009135653947401715
6.260595130748422,-0.009287691043276675
6.264502554854223,-0.009493055389745398
6.268409978960024,-0.009743619628276846
6.272317403065825,-0.010029381291777805
6.276224827171626,-0.010338462804592878
6.280132251277427,-0.010657102327042667
6.284039675383228,-0.01096654354293601
6.287947099489029,-0.011257225293211635
6.29185452359483,-0.011526826425720931
6.2957619477006315,-0.011773438649280304
6.2996693718064325,-0.011995566533671165
6.3035767959122335,-0.01219212750963994
6.3074842200180345,-0.01236245186889806
6.311391644123836,-0.012506282764121971
6.315299068229637,-0.012623776208953127
6.319206492335438,-0.012715501077997992
6.323113916441239,-0.012782439106828043
6.32702134054704,-0.012825984891979763
6.330928764652841,-0.012847945890954648
6.334836188758642,-0.012850542422219205
6.338743612864443,-0.012836407665204951
6.342651036970244,-0.01280858766030841
6.346558461076045,-0.01277054130889112
6.350465885181846,-0.012726140373279632
6.354373309287647,-0.012679669476765496
6.358280733393448,-0.012635323836041039
6.362188157499249,-0.012591038009740733
6.36609558160505,-0.012545776810439597
6.370003005710851,-0.012499706787162931
6.373910429816652,-0.012452982868053726
6.377817853922453,-0.012405748360372658
6.381725278028254,-0.012358134950498098
6.385632702134055,-0.012310262703926102
6.389540126239856,-0.012262240065270416
6.393447550345657,-0.012214163858262477
6.397354974451458,-0.01216611928575141
6.401262398557259,-0.012118179929704027
6.40516982266306,-0.012070407751204831
6.409077246768861,-0.012022853090456016
6.412984670874662,-0.01197555466677746
6.416892094980463,-0.011928539578606737
6.420799519086264,-0.011881823303499104
6.424706943192065,-0.01183540969812751
6.428614367297866,-0.011789290998282595
6.432521791403667,-0.011743447818872682
6.4364292155094684,-0.011697849153923788
6.4403366396152695,-0.011652452376579619
6.4442440637210705,-0.011607203239101568
6.4481514878268715,-0.01156203587286872
6.452058911932673,-0.011516948204801892
6.455966336038474,-0.01147203430542372
6.459873760144275,-0.011427295496774313
6.463781184250076,-0.011382731111836282
6.467688608355877,-0.011338340485051057
6.471596032461678,-0.01129412295231889
6.475503456567479,-0.011250077850998859
6.47941088067328,-0.011206204519908858
6.483318304779081,-0.011162502299325605
6.487225728884882,-0.011118970530984639
6.491133152990683,-0.011075608558080319
6.495040577096484,-0.01103241572526583
6.498948001202285,-0.010989391378653174
6.502855425308086,-0.010946534865813177
6.506762849413887,-0.010903845535775484
6.510670273519688,-0.010861322739028565
6.514577697625489,-0.010818965827519709
6.51848512173129,-0.010776774154655028
6.522392545837091,-0.010734747075299454
6.526299969942892,-0.01069288394577674
6.530207394048693,-0.010651184123869464
6.534114818154494,-0.010609646968819024
6.538022242260295,-0.010568271841325637
6.541929666366096,-0.010527058103548342
6.545837090471897,-0.010486005119105005
6.549744514577698,-0.010445112253072306
6.553651938683499,-0.010404378871985752
6.5575593627893,-0.010363804343839668
6.561466786895101,-0.010323388038087201
6.565374211000902,-0.010283129325640324
6.569281635106703,-0.010243027578869824
6.573189059212504,-0.010203082171605317
6.577096483318305,-0.010163292479135236
6.5810039074241065,-0.010123657878206835
6.5849113315299075,-0.010084177747026192
6.5888187556357085,-0.010044851465258206
6.5927261797415095,-0.010005678414026598
6.596633603847311,-0.009966657975913907
6.600541027953112,-0.0099277895349615
6.604448452058913,-0.009889072476669557
6.608355876164714,-0.009850506187997087
6.612263300270515,-0.009812090057361918
6.616170724376316,-0.009773358854655584
6.620078148482117,-0.009732398947229083
6.623985572587918,-0.009690039409472745
6.627892996693719,-0.009647325816914404
6.63180042079952,-0.009605116591249158
6.635707844905321,-0.009564083000339367
6.639615269011122,-0.009524709158214652
6.643522693116923,-0.009487292025071902
6.647430117222724,-0.009451941407275262
6.651337541328525,-0.009418579957356146
6.655244965434326,-0.009386943174013226
6.659152389540127,-0.009356579402112439
6.663059813645928,-0.009326849832686985
6.666967237751729,-0.009296928502937328
6.67087466185753,-0.009265802296231192
6.674782085963331,-0.009232270942103566
6.678689510069132,-0.0091949470162567
6.682596934174933,-0.009152255940560107
6.686504358280734,-0.009102435983050565
6.690411782386535,-0.009043538257932113
6.694319206492336,-0.008973426725576055
6.698226630598137,-0.008889778192520955
6.702134054703938,-0.008790082311472639
6.706041478809739,-0.008686174133633708
6.70994890291554,-0.008579744553344894
6.713856327021341,-0.008439314274071524
6.717763751127142,-0.008233322389907028
6.721671175232943,-0.007930399505223153
6.7255785993387445,-0.007499367734669957
6.7294860234445455,-0.006909240703175817
6.7333934475503465,-0.0061292235459474275
6.7373008716561475,-0.005128712908469788
6.741208295761949,-0.0038772969465062273
6.74511571986775,-0.0023447553260983744
6.749023143973551,-0.0005010592235661897
6.752930568079352,0.0016836286744920728
6.756837992185153,0.004238954171199823
6.760745416290954,0.00719437155940217
6.764652840396755,0.010579143621665886
6.768560264502556,0.014422341630279474
6.772467688608357,0.018752845347253064
6.776375112714158,0.023599343024318507
6.780282536819959,0.029069095611483763
6.78418996092576,0.03514975682278289
6.788097385031561,0.04160645467465396
6.792004809137362,0.04822057665060252
6.795912233243163,0.05479191725667992
6.799819657348964,0.06113867802148343
6.803727081454765,0.06709746749615614
6.807634505560566,0.07252330125438702
6.811541929666367,0.07728960189241091
6.815449353772168,0.08128819902900847
6.819356777877969,0.08442932930550621
6.82326420198377,0.08664163638577657
6.827171626089571,0.08787217095623784
6.831079050195372,0.08808639072585407
6.834986474301173,0.08726816042613529
6.838893898406974,0.0854197518111373
6.842801322512775,0.08256184365746186
6.846708746618576,0.07873352176425641
6.850616170724377,0.07399227895321453
6.854523594830178,0.06844536667789453
6.858431018935979,0.062308777246059675
6.86233844304178,0.055789962103008475
6.8662458671475814,0.04907498111985639
6.8701532912533825,0.04232881144977636
6.8740607153591835,0.03569534752799876
6.8779681394649845,0.029297401071811398
6.881875563570786,0.023236701080559564
6.885782987676587,0.017593893835645982
6.889690411782388,0.012428542900530838
6.893597835888189,0.0077791291207317675
6.89750525999399,0.0036630506238238547
6.901412684099791,7.66228194396118e-05
6.905320108205592,-0.0030049216007309587
6.909227532311393,-0.0056274326629404126
6.913134956417194,-0.00785784311138385
6.917042380522995,-0.009784168408198943
6.920949804628796,-0.011506250828368116
6.924857228734597,-0.013081512431135306
6.928764652840398,-0.01460330189173665
6.932672076946199,-0.01612690099502972
6.936579501052,-0.017653143182696854
6.940486925157801,-0.01912841355324517
6.944394349263602,-0.02044464886200657
6.948301773369403,-0.021439337521137726
6.952209197475204,-0.021895519599620095
6.956116621581005,-0.02154376788571294
6.960024045686806,-0.02022095087822568
6.963931469792607,-0.017662815596666746
6.967838893898408,-0.013653595149492399
6.971746318004209,-0.008181227712089277
6.97565374211001,-0.001437356526774354
6.979561166215811,0.0061826700972050196
6.983468590321612,0.01407979878367116
6.987376014427413,0.021451271089515993
6.991283438533214,0.027343604500463293
6.995190862639015,0.030898196328566954
6.999098286744816,0.03157845269303233
7.003005710850616,0.029244422395188478
7.006913134956417,0.024153180101693556
7.010820559062218,0.016958826344541406
7.014727983168019,0.008695971355630147
7.01863540727382,0.00032193267793184134
7.022542831379621,-0.007479870077980448
7.026450255485422,-0.014186311768115155
7.030357679591223,-0.019462796007962746
7.034265103697024,-0.023163255172495723
7.038172527802825,-0.025330150396168618
7.042079951908626,-0.026121905594089376
7.045987376014427,-0.025748798720645442
7.049894800120228,-0.024603124385979204
7.053802224226029,-0.023023711859154635
7.05770964833183,-0.02128600529225286
7.061617072437631,-0.019602063720372147
7.065524496543432,-0.018120561061627898
7.069431920649233,-0.01692678611715263
7.073339344755034,-0.016042642571096062
7.077246768860835,-0.015415453274124264
7.081154192966636,-0.014941733667635772
7.085061617072437,-0.014590976105392152
7.088969041178238,-0.014341282460215614
7.092876465284039,-0.014172630560073809
7.09678388938984,-0.01406687418807983
7.100691313495641,-0.014007743082492209
7.104598737601442,-0.013980842936714921
7.108506161707243,-0.013973655399297387
7.112413585813044,-0.013975538073934458
7.116321009918845,-0.013977724519466442
7.1202284340246464,-0.013973324249879075
7.1241358581304475,-0.01395732273430354
7.1280432822362485,-0.013926581397016457
7.1319507063420495,-0.013879837617439895
7.1358581304478506,-0.013817704730141362
7.139765554553652,-0.013742672024833804
7.143672978659453,-0.013659104746375609
7.147580402765254,-0.013573244094770613
7.151487826871055,-0.013493207225168086
7.155395250976856,-0.013424433155565591
7.159302675082657,-0.013358319958990493
7.163210099188458,-0.013286148520570036
7.167117523294259,-0.013200456046072262
7.17102494740006,-0.013094971374358099
7.174932371505861,-0.012964614977381361
7.178839795611662,-0.012805498960188748
7.182747219717463,-0.01261492706091984
7.186654643823264,-0.012391394650807106
7.190562067929065,-0.0121345887341759
7.194469492034866,-0.011845387948444459
7.198376916140667,-0.011525862564123907
7.202284340246468,-0.011179274484818253
7.206191764352269,-0.010810077247224386
7.21009918845807,-0.01042391602113209
7.214006612563871,-0.010027627609424022
7.217914036669672,-0.009629240448075733
7.221821460775473,-0.00923797460615566
7.225728884881274,-0.008864241785825115
7.229636308987075,-0.008519645322338305
7.233543733092876,-0.008225213025068435
7.237451157198677,-0.008003783638647014
7.241358581304478,-0.0078526802808248
7.245266005410279,-0.007768089702515907
7.24917342951608,-0.007745853962707494
7.253080853621881,-0.007781470428459759
7.256988277727682,-0.007870091774905944
7.260895701833483,-0.008006525985252333
7.2648031259392845,-0.008185236350778256
7.2687105500450855,-0.008400341470836079
7.2726179741508865,-0.008645615252851216
7.2765253982566875,-0.008914486912322122
7.280432822362489,-0.009200040972820293
7.28434024646829,-0.009495017265990273
7.288247670574091,-0.009791810931549638
7.292155094679892,-0.010082472417289018
7.296062518785693,-0.010358707479072079
7.299969942891494,-0.010611877180835533
7.303877366997295,-0.010832997894589136
7.307784791103096,-0.011012741300415674
7.311692215208897,-0.011147289610114602
7.315599639314698,-0.011249816323259401
7.319507063420499,-0.011325010415949252
7.3234144875263,-0.011376546226572184
7.327321911632101,-0.011407835587405145
7.331229335737902,-0.01142202782461401
7.335136759843703,-0.011422009758253573
7.339044183949504,-0.011410405702267552
7.342951608055305,-0.011389577464488588
7.346859032161106,-0.011361624346638241
7.350766456266907,-0.011328383144327
7.354673880372708,-0.011291428147054269
7.358581304478509,-0.01125207113820838
7.36248872858431,-0.011211361395066583
7.366396152690111,-0.011170085688795054
7.370303576795912,-0.01112876828444889
7.374211000901713,-0.01108767094097211
7.378118425007514,-0.011046792911197657
7.382025849113315,-0.011005870941847398
7.385933273219116,-0.010964379273532113
7.389840697324917,-0.010921924208865078
7.393748121430718,-0.010879483665878964
7.397655545536519,-0.010837184461553864
7.40156296964232,-0.010795028249543544
7.405470393748121,-0.01075301658605925
7.4093778178539225,-0.010711150929869708
7.4132852419597235,-0.010669432642301123
7.4171926660655245,-0.010627862987237183
7.4211000901713255,-0.010586443131119049
7.425007514277127,-0.01054517414294537
7.428914938382928,-0.01050405699427227
7.432822362488729,-0.010463092559213355
7.43672978659453,-0.01042228161443971
7.440637210700331,-0.010381624839179898
7.444544634806132,-0.010341122815219967
7.448452058911933,-0.010300776026903439
7.452359483017734,-0.01026058486113132
7.456266907123535,-0.010220549607362097
7.460174331229336,-0.010180670457611729
7.464081755335137,-0.010140947506453665
7.467989179440938,-0.010101380751018825
7.471896603546739,-0.010061970090995619
7.47580402765254,-0.010022715328629925
7.479711451758341,-0.009983616168725113
7.483618875864142,-0.009944672218642021
7.487526299969943,-0.009905882988298977
7.491433724075744,-0.009867247890171783
7.495341148181545,-0.009828766239293721
7.499248572287346,-0.009790437253255558
7.503155996393147,-0.009752260052205534
7.507063420498948,-0.009714233658849375
7.510970844604749,-0.009676356998450283
7.51487826871055,-0.00963862889882894
7.518785692816351,-0.009601048090363511
7.522693116922152,-0.009563613205989637
7.526600541027953,-0.009526322781200441
7.530507965133754,-0.009489175254046528
7.534415389239555,-0.00945215228373913
7.538322813345356,-0.009415190682631932
7.542230237451157,-0.009378304941588603
7.546137661556958,-0.009341516749680678
7.5500450856627594,-0.009304845763281512
7.5539525097685605,-0.009268309606066283
7.5578599338743615,-0.009231923869011985
7.5617673579801625,-0.009195702110397438
7.565674782085964,-0.00915965585580328
7.569582206191765,-0.009123794598111969
7.573489630297566,-0.009088125797507783
7.577397054403367,-0.00905265488147682
7.581304478509168,-0.009017385244807004
7.585211902614969,-0.008982318249588072
7.58911932672077,-0.008947453225211587
7.593026750826571,-0.008912787468370927
7.596934174932372,-0.008878316243061297
7.600841599038173,-0.008844032780579717
7.604749023143974,-0.008809928279525031
7.608656447249775,-0.008775991905797902
7.612563871355576,-0.008742210792600813
7.616471295461377,-0.008708570040438068
7.620378719567178,-0.008675052717115793
7.624286143672979,-0.008641639857741933
7.62819356777878,-0.008608310464726251
7.632100991884581,-0.008575041507780335
7.636008415990382,-0.008541807923917592
7.639915840096183,-0.008508582617453249
7.643823264201984,-0.00847533646000435
7.647730688307785,-0.008442038290489768
7.651638112413586,-0.008408654915130188
7.655545536519387,-0.008375151107448122
7.659452960625188,-0.008341489608267897
7.663360384730989,-0.008307631125715663
7.66726780883679,-0.008272855346159659
7.671175232942591,-0.008231838232130927
7.675082657048392,-0.00818705914497188
7.678990081154193,-0.008141531928536994
7.682897505259994,-0.00809652549801611
7.686804929365795,-0.008051563839934418
7.690712353471596,-0.008004426012152472
7.6946197775773975,-0.00795114614386618
7.6985272016831985,-0.007886013435606807
7.7024346257889995,-0.007801572159240976
7.7063420498948005,-0.007688621657970667
7.710249474000602,-0.007536216346333219
7.714156898106403,-0.007331665710201325
7.718064322212204,-0.007060534306783037
7.721971746318005,-0.006706641764621763
7.725879170423806,-0.0062520627835962695
7.729786594529607,-0.005703854258341622
7.733694018635408,-0.005030222832384327
7.737601442741209,-0.004159027937590628
7.74150886684701,-0.00302674919197439
7.745416290952811,-0.0015784873024964436
7.749323715058612,0.00023203593493542184
7.753231139164413,0.0024424776354664583
7.757138563270214,0.0050818738252949485
7.761045987376015,0.008170639441672237
7.764953411481816,0.011720568332902668
7.768860835587617,0.015734833258343663
7.772768259693418,0.02020798588840566
7.776675683799219,0.025125956804552155
7.78058310790502,0.030466055499299653
7.784490532010821,0.03619697037621773
7.788397956116622,0.04228938345862682
7.792305380222423,0.04866116571805391
7.796212804328224,0.0551054082538148
7.800120228434025,0.06142384959132989
7.804027652539826,0.06743571353545696
7.807935076645627,0.07297770917049128
7.811842500751428,0.07790403086016542
7.815749924857229,0.08208635824764948
7.81965734896303,0.0854138562555509
7.823564773068831,0.08779317508591451
7.827472197174632,0.08914845022022262
7.831379621280433,0.08942130241939494
7.835287045386234,0.08857083772378854
7.8391944694920355,0.086573647453198
7.8431018935978365,0.08342609731732782
7.8470093177036375,0.07926221905531924
7.8509167418094385,0.07427400591984294
7.85482416591524,0.06864223013364375
7.858731590021041,0.06253642652481102
7.862639014126842,0.056114892526778676
7.866546438232643,0.04952468817832518
7.870453862338444,0.04290163612357352
7.874361286444245,0.03637032161199126
7.878268710550046,0.030044092498390455
7.882176134655847,0.024025059242927804
7.886083558761648,0.01840409491110448
7.889990982867449,0.013260835173766167
7.89389840697325,0.008664893077150274
7.897805831079051,0.004651651568261855
7.901713255184852,0.0011636045550215274
7.905620679290653,-0.0018675796044611646
7.909528103396454,-0.004506994136177974
7.913435527502255,-0.006816493850221931
7.917342951608056,-0.008854695140787374
7.921250375713857,-0.010676975986169908
7.925157799819658,-0.012335475948766453
7.929065223925459,-0.013879096175075205
7.93297264803126,-0.015353499395695653
7.936880072137061,-0.016801109925328597
7.940787496242862,-0.01827351243917662
7.944694920348663,-0.019831868902547536
7.948602344454464,-0.021068985333491306
7.952509768560265,-0.021563748017076365
7.956417192666066,-0.021002792853190358
7.960324616771867,-0.019180505356540138
7.964232040877668,-0.015999020656651767
7.968139464983469,-0.011468223497870514
7.97204688908927,-0.005705748239360877
7.975954313195071,0.0010630211448934591
7.9798617373008724,0.008504951066089561
7.9837691614066735,0.01617915832060534
7.9876765855124745,0.023442056247091857
7.9915840096182755,0.02915578883131933
7.995491433724077,0.03240481703059528
7.999398857829878,0.032696536657950456
8.003306281935679,0.02995757605434527
8.00721370604148,0.02453379608866973
8.01112113014728,0.01718975033394717
8.015028554253082,0.008900996020158775
8.018935978358883,0.0005356978052228761
8.022843402464684,-0.007184390694576374
8.026750826570485,-0.01374307067661074
8.030658250676286,-0.01882969815190787
8.034565674782087,-0.022339183945151355
8.038473098887888,-0.024346351110122948
8.042380522993689,-0.024939862241850387
8.04628794709949,-0.024472970566588054
8.050195371205291,-0.023305574140114815
8.054102795311092,-0.02174321691816477
8.058010219416893,-0.02003708875642725
8.061917643522694,-0.018384025410546814
8.065825067628495,-0.016926508536123264
8.069732491734296,-0.015752665688711615
8.073639915840097,-0.014895803606689222
8.077547339945898,-0.014303184026055705
8.0814547640517,-0.01390342489703169
8.0853621881575,-0.01364758756614405
8.089269612263301,-0.013493399765970925
8.093177036369102,-0.013405255615141722
8.097084460474903,-0.013354215618337124
8.100991884580704,-0.013318006666289076
8.104899308686505,-0.013281022035780797
8.108806732792306,-0.013234321389646777
8.112714156898107,-0.013175630776772768
8.116621581003908,-0.01310934263209579
8.12052900510971,-0.013046515776604154
8.12443642921551,-0.01299402273913138
8.128343853321311,-0.0129411210082366
8.132251277427113,-0.012887583191032224
8.136158701532914,-0.012833259337615753
8.140066125638715,-0.012777706764113668
8.143973549744516,-0.012720190052681449
8.147880973850317,-0.012659681051503554
8.151788397956118,-0.012594858874793434
8.155695822061919,-0.012524109902793526
8.15960324616772,-0.012445527781775252
8.16351067027352,-0.012356913424039027
8.167418094379322,-0.01225577500791425
8.171325518485123,-0.01213932797775931
8.175232942590924,-0.012004495043961578
8.179140366696725,-0.01184790618293742
8.183047790802526,-0.011665898637132185
8.186955214908327,-0.011443817389267363
8.190862639014128,-0.011175140849728671
8.194770063119929,-0.010868834557388646
8.19867748722573,-0.010533581307458111
8.202584911331531,-0.010177779561310663
8.206492335437332,-0.009809543446482678
8.210399759543133,-0.009436702756673309
8.214307183648934,-0.009066802951744479
8.218214607754735,-0.008707105157720895
8.222122031860536,-0.008364586166790037
8.226029455966337,-0.008045938437302157
8.229936880072138,-0.007757570093770292
8.23384430417794,-0.00750560492687025
8.23775172828374,-0.007295882393440614
8.241659152389541,-0.007133957616482747
8.245566576495342,-0.007025101385160782
8.249474000601143,-0.006974300154801641
8.253381424706944,-0.006986256046895007
8.257288848812745,-0.00706538684909335
8.261196272918546,-0.007215826015211909
8.265103697024347,-0.007436190286215111
8.269011121130148,-0.0077016793358244805
8.27291854523595,-0.007997600704994896
8.27682596934175,-0.008312194091846598
8.280733393447552,-0.008634881497547028
8.284640817553353,-0.008956267226310842
8.288548241659154,-0.009268137885399902
8.292455665764955,-0.009563462385123275
8.296363089870756,-0.009836391938837242
8.300270513976557,-0.01008226006294529
8.304177938082358,-0.01029758257689811
8.308085362188159,-0.010480057603193605
8.31199278629396,-0.010628565567376888
8.31590021039976,-0.010743169198040274
8.319807634505562,-0.010825113526823292
8.323715058611363,-0.010876825888412675
8.327622482717164,-0.010901915920542368
8.331529906822965,-0.010905175563993518
8.335437330928766,-0.010892579062594488
8.339344755034565,-0.010871282963220855
8.343252179140366,-0.010849312374541321
8.347159603246167,-0.010825331723502477
8.351067027351968,-0.010797157993455955
8.35497445145777,-0.010765457550996583
8.35888187556357,-0.01073084591107084
8.362789299669371,-0.010693887736976859
8.366696723775172,-0.010655096840364415
8.370604147880973,-0.010614936181234942
8.374511571986774,-0.010573817867941517
8.378418996092575,-0.010532103157188869
8.382326420198376,-0.01049010245403338
8.386233844304178,-0.010448075311883076
8.390141268409979,-0.01040623043249764
8.39404869251578,-0.010364725665988402
8.39795611662158,-0.010323668010818339
8.401863540727382,-0.010283113613802082
8.405770964833183,-0.01024306777010591
8.409678388938984,-0.010203484923247751
8.413585813044785,-0.01016426866509719
8.417493237150586,-0.01012527173587545
8.421400661256387,-0.010086296024155415
8.425308085362188,-0.010047111121897752
8.429215509467989,-0.010007930036447616
8.43312293357379,-0.009968901648629762
8.43703035767959,-0.009930025372565085
8.440937781785392,-0.009891300624177214
8.444845205891193,-0.009852726821192507
8.448752629996994,-0.009814303383140063
8.452660054102795,-0.009776029731351709
8.456567478208596,-0.00973790528896201
8.460474902314397,-0.009699929480908264
8.464382326420198,-0.009662101733930503
8.468289750525999,-0.009624421476571493
8.4721971746318,-0.009586888139176733
8.476104598737601,-0.009549501153894458
8.480012022843402,-0.009512259954675636
8.483919446949203,-0.00947516397727397
8.487826871055004,-0.009438212659245895
8.491734295160805,-0.009401405439950584
8.495641719266606,-0.009364741760549938
8.499549143372407,-0.009328221064008598
8.503456567478208,-0.009291842795093937
8.50736399158401,-0.009255606400376058
8.51127141568981,-0.009219511328227807
8.515178839795611,-0.009183557028824755
8.519086263901412,-0.009147742954145213
8.522993688007213,-0.009112068557970225
8.526901112113014,-0.009076533295883565
8.530808536218816,-0.009041136625271746
8.534715960324617,-0.009005878005324012
8.538623384430418,-0.008970756897032346
8.542530808536219,-0.008935772763191456
8.54643823264202,-0.008900925068398794
8.55034565674782,-0.00886621327905454
8.554253080853622,-0.008831636863361608
8.558160504959423,-0.008797195291325652
8.562067929065224,-0.008762888034755051
8.565975353171025,-0.008728714567260926
8.569882777276826,-0.008694674364257127
8.573790201382627,-0.008660766902960242
8.577697625488428,-0.00862699166238959
8.581605049594229,-0.008593348123367225
8.58551247370003,-0.008559819569673562
8.589419897805831,-0.008526397729794351
8.593327321911632,-0.008493097257555
8.597234746017433,-0.008459929937041668
8.601142170123234,-0.008426904651136227
8.605049594229035,-0.008394027381516247
8.608957018334836,-0.008361301208655006
8.612864442440637,-0.008328726311821482
8.616771866546438,-0.008296299969080358
8.62067929065224,-0.00826401655729202
8.62458671475804,-0.008231867552112561
8.628494138863841,-0.008199841527993777
8.632401562969642,-0.008167924158183161
8.636308987075443,-0.00813609821472392
8.640216411181244,-0.008104343568454958
8.644123835287045,-0.008072637189010886
8.648031259392846,-0.008040953144822014
8.651938683498647,-0.008009262603114362
8.655846107604448,-0.007977533829909648
8.65975353171025,-0.007945105461659498
8.66366095581605,-0.00790776413599599
8.667568379921851,-0.00786778103723999
8.671475804027653,-0.007827848717063449
8.675383228133454,-0.007789423716560488
8.679290652239255,-0.007752726566247402
8.683198076345056,-0.007716741786062652
8.687105500450857,-0.007679217885366874
8.691012924556658,-0.0076366673629428726
8.694920348662459,-0.007584366706995626
8.69882777276826,-0.007516356395152279
8.70273519687406,-0.007425440894462152
8.706642620979862,-0.007303188661396734
8.710550045085663,-0.0071399321418496855
8.714457469191464,-0.006924767771136837
8.718364893297265,-0.006645555973996193
8.722272317403066,-0.0062962769452246025
8.726179741508867,-0.00588559260070126
8.730087165614668,-0.005357753920737042
8.733994589720469,-0.004653361549066858
8.73790201382627,-0.003718696253228937
8.741809437932071,-0.002505718924564835
8.745716862037872,-0.0009720705782194283
8.749624286143673,0.0009189276468590871
8.753531710249474,0.003198274487919185
8.757439134355275,0.005891288558406024
8.761346558461076,0.009017608347961436
8.765253982566877,0.012591192222423938
8.769161406672678,0.016620318423828707
8.77306883077848,0.021107585070407626
8.77697625488428,0.02604991015658922
8.780883678990081,0.03143853155299871
8.784791103095882,0.037275888593182274
8.788698527201683,0.043522144112595584
8.792605951307484,0.04997255742423898
8.796513375413285,0.05642609328202018
8.800420799519086,0.06269811501082967
8.804328223624887,0.06862038450654062
8.808235647730688,0.07404106223600894
8.81214307183649,0.07882470723707324
8.81605049594229,0.08285227711855486
8.819957920048092,0.08602112806025788
8.823865344153893,0.08824501481296906
8.827772768259694,0.08945409069845792
8.831680192365495,0.08959490760947666
8.835587616471296,0.08863041600976027
8.839495040577097,0.08653996493402633
8.843402464682898,0.0833168453587996
8.847309888788699,0.0790406814027376
8.8512173128945,0.0739205135930874
8.8551247370003,0.06815950468139194
8.859032161106102,0.06194464205869376
8.862939585211903,0.05544673775553506
8.866847009317704,0.048820428441957706
8.870754433423505,0.042204175427503154
8.874661857529306,0.03572026466121258
8.878569281635107,0.02947480673162673
8.882476705740908,0.02355773686678602
8.886384129846709,0.01804281493423056
8.89029155395251,0.012987625441000017
8.894198978058311,0.008433577533633746
8.898106402164112,0.004405904998170784
8.902013826269913,0.000927590000151619
8.905921250375714,-0.0019634092857041853
8.909828674481515,-0.004404681346961358
8.913736098587316,-0.006535477569950021
8.917643522693117,-0.008466202822172449
8.921550946798918,-0.01027841545230302
8.92545837090472,-0.01202482729018828
8.92936579501052,-0.013729303646846873
8.933273219116321,-0.0153868633144696
8.937180643222122,-0.016963678566419397
8.941088067327923,-0.01839707515723131
8.944995491433724,-0.019595532322612526
8.948902915539525,-0.0204386910336351
8.952810339645326,-0.02078552926547499
8.956717763751127,-0.020292752268687424
8.960625187856929,-0.018625076329412404
8.96453261196273,-0.015588277277159154
8.96844003606853,-0.011129190484806093
8.972347460174332,-0.0053357108686008636
8.976254884280133,0.0015632071118396942
8.980162308385934,0.009197549453529533
8.984069732491735,0.017058941609595594
8.987977156597536,0.024262083044466667
8.991884580703337,0.029675181824549004
8.995792004809138,0.032518000191817185
8.999699428914939,0.032399428063817556
9.00360685302074,0.029317483033668237
9.00751427712654,0.02365876545337177
9.011421701232342,0.01614988396813695
9.015329125338143,0.007790348787654604
9.019236549443944,-0.0005214615946994468
9.023143973549745,-0.00809830336832634
9.027051397655546,-0.01446406740540421
9.030958821761347,-0.01935377926088815
9.034866245867148,-0.022625323943594573
9.038773669972949,-0.0242394263035043
9.04268109407875,-0.024578991294604335
9.046588518184551,-0.024006850966727798
9.050495942290352,-0.022837857576827353
9.054403366396153,-0.021338883588975264
9.058310790501954,-0.01972882167436335
9.062218214607755,-0.01817858471130302
9.066125638713556,-0.016811105785225256
9.070033062819357,-0.01570133818868058
9.073940486925158,-0.014876255421339146
9.07784791103096,-0.014314851189990613
9.08175533513676,-0.013945041389402595
9.085662759242561,-0.013693550774134235
9.089570183348362,-0.013528861822833698
9.093477607454163,-0.013424875392035785
9.097385031559964,-0.013359649459281902
9.101292455665766,-0.013315399123120063
9.105199879771567,-0.013278496603104891
9.109107303877368,-0.013239471239797615
9.113014727983169,-0.013193009494766076
9.11692215208897,-0.013137954950584717
9.12082957619477,-0.013077308310834599
9.124737000300572,-0.013018227400103378
9.128644424406373,-0.012965614962591807
9.132551848512174,-0.012912754586661636
9.136459272617975,-0.012858955845563867
9.140366696723776,-0.012803559420298401
9.144274120829577,-0.012745671493389177
9.148181544935378,-0.012684163748884168
9.152088969041179,-0.012617673372355387
9.15599639314698,-0.012544603050898884
9.159903817252781,-0.01246312097313475
9.163811241358582,-0.012371160829207107
9.167718665464383,-0.012266421810784117
9.171626089570184,-0.012146368611057985
9.175533513675985,-0.012008231424744947
9.179440937781786,-0.011849005948085278
9.183348361887587,-0.011665453378843293
9.187255785993388,-0.011454100416307341
9.19116321009919,-0.011211207397961413
9.19507063420499,-0.010921388684052895
9.198978058310791,-0.01058418721725728
9.202885482416592,-0.010213595193371183
9.206792906522393,-0.009822650715235633
9.210700330628194,-0.009423437792736078
9.214607754733995,-0.009027086342802384
9.218515178839796,-0.008643772189408837
9.222422602945597,-0.008282717063574141
9.226330027051398,-0.007952188603361417
9.2302374511572,-0.007659500353878202
9.234144875263,-0.007411011767276458
9.238052299368801,-0.007212128202752558
9.241959723474602,-0.007067300926547297
9.245867147580404,-0.006980027111945889
9.249774571686205,-0.006952849839277963
9.253681995792006,-0.006987358095917568
9.257589419897807,-0.007084186776283172
9.261496844003608,-0.007243016681837658
9.265404268109409,-0.007462574521088336
9.26931169221521,-0.007732191496805125
9.27321911632101,-0.008030209246891061
9.277126540426812,-0.00834498640160856
9.281033964532613,-0.00866619981183063
9.284941388638414,-0.008984707125676861
9.288848812744215,-0.009292546788513413
9.292756236850016,-0.009582938042953027
9.296663660955817,-0.009850280928855017
9.300571085061618,-0.010090156283325274
9.304478509167419,-0.010299325740716266
9.30838593327322,-0.010475731732627036
9.312293357379021,-0.010618497487903202
9.316200781484822,-0.010727927032636963
9.320108205590623,-0.010805505190167089
9.324015629696424,-0.010853897581078926
9.327923053802225,-0.010876950623204405
9.331830477908026,-0.010879691531622018
9.335737902013827,-0.010868328318656846
9.339645326119628,-0.010850249793880542
9.34355275022543,-0.010830936838379804
9.34746017433123,-0.010806874360340548
9.351367598437031,-0.010778448420724965
9.355275022542832,-0.01074638520789788
9.359182446648633,-0.010711352767567916
9.363089870754434,-0.010673961002787509
9.366997294860235,-0.01063476167395289
9.370904718966036,-0.010594248398804101
9.374812143071837,-0.010552856652424987
9.378719567177638,-0.01051096376724319
9.38262699128344,-0.01046888893303017
9.38653441538924,-0.010426893196901177
9.390441839495042,-0.010385179463315275
9.394349263600843,-0.010343892494075326
9.398256687706644,-0.010303118908328001
9.402164111812445,-0.010262887182563771
9.406071535918246,-0.010223167650616913
9.409978960024047,-0.010183872503665509
9.413886384129848,-0.010144855790231444
9.417793808235649,-0.010105913416180407
9.42170123234145,-0.010066783144721893
9.42560865644725,-0.010027525756637701
9.429516080553052,-0.009988421265169302
9.433423504658853,-0.00994946913543019
9.437330928764654,-0.009910668786356908
9.441238352870455,-0.009872019638523894
9.445145776976256,-0.009833521114143496
9.449053201082057,-0.009795172637065967
9.452960625187858,-0.009756973632779458
9.456868049293659,-0.00971892352841003
9.46077547339946,-0.009681021752721645
9.464682897505261,-0.009643267736116169
9.468590321611062,-0.009605660910633375
9.472497745716863,-0.009568200709950936
9.476405169822664,-0.009530886569384433
9.480312593928465,-0.009493717925887348
9.484220018034266,-0.009456694218051068
9.488127442140067,-0.009419814886104886
9.492034866245868,-0.009383079371915997
9.49594229035167,-0.009346487118989501
9.49984971445747,-0.009310037572468401
9.503757138563271,-0.009273730179133605
9.507664562669072,-0.009237564387403923
9.511571986774873,-0.009201539647336075
9.515479410880674,-0.00916565541062468
9.519386834986475,-0.00912991113060226
9.523294259092276,-0.009094306262239244
9.527201683198077,-0.009058840262143965
9.531109107303879,-0.009023512588562661
9.53501653140968,-0.00898832270137947
9.53892395551548,-0.008953270062116438
9.542831379621282,-0.008918354133933513
9.546738803727083,-0.008883574381628548
9.550646227832884,-0.008848930271637303
9.554553651938685,-0.008814421272033433
9.558461076044486,-0.008780046852528508
9.562368500150287,-0.008745806484471996
9.566275924256088,-0.00871169964085127
9.570183348361889,-0.008677725796291606
9.57409077246769,-0.008643884427056188
9.57799819657349,-0.008610174445456555
9.581905620679292,-0.00857657720825488
9.585813044785093,-0.00854309339302228
9.589720468890894,-0.008509734239850145
9.593627892996695,-0.008476508781513103
9.597535317102496,-0.008443423843469022
9.601442741208297,-0.008410484043859003
9.605350165314098,-0.008377691793507381
9.609257589419899,-0.008345047295921733
9.6131650135257,-0.00831254854729287
9.617072437631501,-0.008280191336494842
9.620979861737302,-0.008247969245084929
9.624887285843103,-0.008215873647303655
9.628794709948904,-0.008183893710074778
9.632702134054705,-0.008152016393005291
9.636609558160506,-0.008120226448385425
9.640516982266307,-0.00808850642118865
9.644424406372108,-0.008056836649071667
9.64833183047791,-0.008025195262374418
9.65223925458371,-0.00799355818412008
9.656146678689511,-0.007961899130015066
9.660054102795312,-0.007927466427195329
9.663961526901113,-0.007889254899116393
9.667868951006914,-0.007850205301308026
9.671776375112714,-0.007812163397569097
9.675683799218515,-0.007775868747533521
9.679591223324316,-0.007740954706670358
9.683498647430117,-0.007705948426283746
9.687406071535918,-0.007668270853512915
9.691313495641719,-0.007624236731332192
9.69522091974752,-0.007569054598550996
9.699128343853321,-0.007496826789813841
9.703035767959122,-0.0074005494356003355
9.706943192064923,-0.007272112462225182
9.710850616170724,-0.007102299591838175
9.714758040276525,-0.006880788342424208
9.718665464382326,-0.0065965702629759695
9.722572888488127,-0.006261221618034628
9.726480312593928,-0.0058429028903725765
9.73038773669973,-0.005285856735119552
9.73429516080553,-0.00453864695782058
9.738202584911331,-0.0035541585144359656
9.742110009017132,-0.0022895975113413052
9.746017433122933,-0.000706491205327473
9.749924857228734,0.001229311996399366
9.753832281334535,0.0035476425362177596
9.757739705440336,0.00627400970609098
9.761647129546137,0.009429601647567004
9.765554553651938,0.013031285351778542
9.76946197775774,0.01709160665944298
9.77336940186354,0.021618790260862462
9.777276825969341,0.026616739695923826
9.781184250075142,0.03208931370194173
9.785091674180943,0.038044635814804016
9.788999098286745,0.044324298756352444
9.792906522392546,0.05074125264395209
9.796813946498347,0.057120061928605845
9.800721370604148,0.06329690539495442
9.804628794709949,0.06911957616127642
9.80853621881575,0.07444748167948816
9.81244364292155,0.07915164373514388
9.816351067027352,0.0831146984474356
9.820258491133153,0.08623089626919322
9.824165915238954,0.08840610198688438
9.828073339344755,0.08955779472061462
9.831980763450556,0.0896150679241273
9.835888187556357,0.08851862938480351
9.839795611662158,0.08621944311491375
9.843703035767959,0.08277140990022219
9.84761045987376,0.07836670558914004
9.851517883979561,0.07319460640639211
9.855425308085362,0.06743256885518932
9.859332732191163,0.06124622971722876
9.863240156296964,0.05478940605269365
9.867147580402765,0.04820409520025336
9.871055004508566,0.0416204747770634
9.874962428614367,0.03515690267876542
9.878869852720168,0.028919917079487253
9.88277727682597,0.02300423643184281
9.88668470093177,0.017492759466932184
9.890592125037571,0.012456565194341615
9.894499549143372,0.007954912902143535
9.898406973249173,0.0040247901419852
9.902314397354974,0.0006262035339349237
9.906221821460775,-0.0023087982124193017
9.910129245566576,-0.004846924857694314
9.914036669672377,-0.00705357012350242
9.917944093778178,-0.008992811692451398
9.92185151788398,-0.01072741120814449
9.92575894198978,-0.012318814275180386
9.929666366095582,-0.013827150459153278
9.933573790201383,-0.015311233286652775
9.937481214307184,-0.016830423227847613
9.941388638412985,-0.018372079989525662
9.945296062518786,-0.01968494824933018
9.949203486624587,-0.020507209716699108
9.953110910730388,-0.020609920131445716
9.957018334836189,-0.019797009263758596
9.96092575894199,-0.017905280914201654
9.96483318304779,-0.014804412913714114
9.968740607153592,-0.010396957123610526
9.972648031259393,-0.004618339435580749
9.976555455365194,0.002526708517745127
9.980462879470995,0.010406165610117675
9.984370303576796,0.01812563042279021
9.988277727682597,0.02486846168403721
9.992185151788398,0.02989640968796567
9.996092575894199,0.032549616294515034
10.0,0.03224661492945729
