time,amplitude
0.0009017132551849549,0.039805771307341004
0.004809137360985982,0.036859859769715966
0.00871656146678701,0.03131029550580487
0.012623985572588037,0.023859901805197738
0.016531409678389064,0.0154960987719998
0.02043883378419009,0.0071327644537498985
0.02434625788999112,-0.0005273830986833247
0.028253681995792146,-0.00699280750985002
0.03216110610159317,-0.011983154079719165
0.0360685302073942,-0.015412540825553246
0.03997595431319523,-0.01717715010992273
0.043883378418996255,-0.017581457652754654
0.04779080252479728,-0.01701541354664921
0.05169822663059831,-0.015816368951977525
0.05560565073639934,-0.014269076096881694
0.059513074842200364,-0.012605688277274736
0.06342049894800139,-0.01100575985684062
0.06732792305380242,-0.00959624626703429
0.07123534715960345,-0.008451504007081608
0.07514277126540447,-0.0075932906439793845
0.0790501953712055,-0.006990764812495376
0.08295761947700653,-0.006561394591626126
0.08686504358280756,-0.006224149258472929
0.09077246768860858,-0.0059507966131172345
0.09467989179440961,-0.005719851437245768
0.09858731590021064,-0.005512444701077611
0.10249474000601166,-0.005312323563364204
0.10640216411181269,-0.005105851371389345
0.11030958821761372,-0.004882007660969191
0.11421701232341475,-0.004632388156452254
0.11812443642921577,-0.004351204770719408
0.1220318605350168,-0.004035285605183883
0.12593928464081783,-0.0036840749497912663
0.12984670874661886,-0.003299633283019505
0.13375413285241988,-0.0028866372718789044
0.1376615569582209,-0.002449946922949472
0.14156898106402194,-0.0019840220109481606
0.14547640516982296,-0.0014879924408956185
0.149383829275624,-0.0009624184108748058
0.15329125338142502,-0.0004083092572988488
0.15719867748722605,0.0001728765450889568
0.16110610159302707,0.000779231383215151
0.1650135256988281,0.0014083985056761042
0.16892094980462868,0.0020575720227379423
0.1728283739104297,0.0027234969063368517
0.17673579801623074,0.0034024689900786255
0.18064322212203177,0.004090334969238967
0.1845506462278328,0.004782492400763408
0.18845807033363382,0.005473889703267309
0.19236549443943485,0.006159026157035878
0.19627291854523587,0.006831951904024139
0.2001803426510369,0.0074862679478569566
0.20408776675683793,0.008117652119171186
0.20799519086263896,0.008721593851844896
0.21190261496843998,0.009290432282047408
0.215810039074241,0.00981722342120623
0.21971746318004204,0.01029575435294923
0.22362488728584307,0.010720543233104635
0.2275323113916441,0.011086839289701028
0.23143973549744512,0.01139062282296735
0.23534715960324615,0.0116286052053329
0.23925458370904717,0.011798228881427331
0.2431620078148482,0.01189766736808066
0.24706943192064923,0.011925825254323256
0.25097685602645026,0.011882338201385848
0.2548842801322513,0.011767572942699525
0.2587917042380523,0.011582627283895728
0.26269912834385334,0.011329330102806262
0.26660655244965437,0.011010241349463283
0.2705139765554554,0.010628652046099312
0.2744214006612564,0.01018858428714722
0.27832882476705745,0.009694791239240243
0.2822362488728585,0.009149684608749695
0.2861436729786595,0.008557464504844391
0.29005109708446053,0.007925998879960582
0.29395852119026156,0.0072627546188123015
0.2978659452960626,0.006574797264236444
0.3017733694018636,0.005868791017192758
0.30568079350766464,0.00515099873676385
0.30958821761346567,0.004427281940155186
0.3134956417192667,0.0037031008026950866
0.3174030658250677,0.0029835141578347345
0.32131048993086875,0.0022731794971481587
0.3252179140366698,0.0015763529703322603
0.3291253381424708,0.0008968893852067863
0.33303276224827183,0.0002382422077143436
0.33694018635407286,-0.0003965364380795998
0.3408476104598739,-0.0010047957699867213
0.3447550345656749,-0.0015842863476958433
0.34866245867147594,-0.0021331600727729286
0.35256988277727697,-0.0026499701886610796
0.356477306883078,-0.0031336712806805476
0.360384730988879,-0.0035836192760287204
0.36429215509468005,-0.003999325028403542
0.3681995792004811,-0.004378512945363785
0.3721070033062821,-0.004722365141728529
0.37601442741208313,-0.0050330269462918135
0.37992185151788416,-0.005312576262549173
0.3838292756236852,-0.005563023568697647
0.3877366997294862,-0.0057863119176357735
0.39164412383528724,-0.005984316936963592
0.39555154794108827,-0.00615884682898264
0.3994589720468893,-0.006311642370695961
0.4033663961526903,-0.006444376913808092
0.40727382025849135,-0.006558656384725076
0.4111812443642924,-0.006656019284554459
0.4150886684700934,-0.006737936689105278
0.41899609257589443,-0.00680581224888808
0.42290351668169546,-0.006860982189114907
0.4268109407874965,-0.006904715309699303
0.4307183648932975,-0.006938212985256315
0.43462578899909854,-0.006962609165102487
0.43853321310489957,-0.0069789703732558665
0.4424406372107006,-0.006988295708436001
0.4463480613165016,-0.006991516844063937
0.45025548542230265,-0.006989498028262226
0.4541629095281037,-0.006983036083854908
0.4580703336339047,-0.006972860408367541
0.46197775773970573,-0.0069596329740271735
0.46588518184550676,-0.006943948327762355
0.4697926059513078,-0.006926333591203137
0.4737000300571088,-0.0069072484606810675
0.47760745416290984,-0.006887085207229207
0.48151487826871087,-0.006866168676582098
0.4854223023745119,-0.006844756289175809
0.4893297264803129,-0.006823038040147882
0.49323715058611395,-0.006801136499337371
0.497144574691915,-0.006779106811284847
0.501051998797716,-0.0067569366952323455
0.5049594229035166,-0.006734546445123439
0.5088668470093176,-0.006711788929603178
0.5127742711151186,-0.006688449592018121
0.5166816952209197,-0.006664246450416319
0.5205891193267207,-0.006639028203381461
0.5244965434325217,-0.006613598602648638
0.5284039675383227,-0.0065881175181924405
0.5323113916441238,-0.006562610511995933
0.5362188157499248,-0.006537101424980745
0.5401262398557258,-0.0065116123770070766
0.5440336639615269,-0.006486163766873695
0.5479410880673279,-0.006460774272317934
0.5518485121731289,-0.0064354608500156955
0.5557559362789299,-0.00641023873558145
0.559663360384731,-0.006385121443568236
0.563570784490532,-0.006360120767467658
0.567478208596333,-0.0063352467797098905
0.571385632702134,-0.006310507831663675
0.5752930568079351,-0.0062859105536363195
0.5792004809137361,-0.006261459854873703
0.5831079050195371,-0.006237158923560268
0.5870153291253382,-0.006213009226819028
0.5909227532311392,-0.006189010510711564
0.5948301773369402,-0.006165160800238023
0.5987376014427412,-0.006141456399337122
0.6026450255485423,-0.006117891890886145
0.6065524496543433,-0.0060944601367009426
0.6104598737601443,-0.006071152277535935
0.6143672978659453,-0.006047957733084109
0.6182747219717464,-0.00602486420197702
0.6221821460775474,-0.0060018576617847895
0.6260895701833484,-0.00597892236901611
0.6299969942891495,-0.00595604085911824
0.6339044183949505,-0.005933193946477004
0.6378118425007515,-0.005910360724416798
0.6417192666065525,-0.005887518565200583
0.6456266907123536,-0.005864643120029888
0.6495341148181546,-0.0058417083190448115
0.6534415389239556,-0.005818686371324018
0.6573489630297566,-0.005795547764884742
0.6612563871355577,-0.0057722612666827825
0.6651638112413587,-0.00574879392261251
0.6690712353471597,-0.00572511105750686
0.6729786594529608,-0.005701176275137337
0.6768860835587618,-0.005676951883788773
0.6807935076645628,-0.00565304768061315
0.6847009317703638,-0.0056295020438685605
0.6886083558761649,-0.005605401678456011
0.6925157799819659,-0.00557967252529494
0.6964232040877669,-0.005551079761323219
0.700330628193568,-0.005518227799497148
0.704238052299369,-0.005479560288791461
0.70814547640517,-0.005433360114199322
0.712052900510971,-0.005377749396732327
0.7159603246167721,-0.005310689493420504
0.7198677487225731,-0.005229980997312311
0.7237751728283741,-0.005133263737474641
0.7276825969341751,-0.005018016778992814
0.7315900210399762,-0.004881558422970585
0.7354974451457772,-0.004721046206530138
0.7394048692515782,-0.0045334769028120905
0.7433122933573793,-0.004315686520975489
0.7472197174631803,-0.004064350306197817
0.7511271415689813,-0.003775982739674981
0.7550345656747823,-0.003446937538621327
0.7589419897805834,-0.003073407656269628
0.7628494138863844,-0.0026514252818710905
0.7667568379921854,-0.0021768618406953497
0.7706642620979864,-0.001644759746873554
0.7745716862037875,-0.001057011167199928
0.7784791103095885,-0.0004249503258303394
0.7823865344153895,0.0002397745974641605
0.7862939585211906,0.0009254780509188988
0.7902013826269916,0.0016204371107755838
0.7941088067327926,0.0023128914812823036
0.7980162308385936,0.002991043494693526
0.8019236549443947,0.003643058111270099
0.8058310790501957,0.004257062919279249
0.8097385031559967,0.004821148134994586
0.8136459272617977,0.005323366602696094
0.8175533513675988,0.005751733794670142
0.8214607754733998,0.0060942278112094805
0.8253681995792008,0.006338789380613231
0.8292756236850019,0.006473321859186906
0.8331830477908029,0.006485607659672828
0.8370904718966035,0.006367807672121443
0.8409978960024045,0.0061309232414094705
0.8449053201082055,0.0057894705412260715
0.8488127442140065,0.005357585735094525
0.8527201683198076,0.004849024976372234
0.8566275924256086,0.004277164408250728
0.8605350165314096,0.00365500016375566
0.8644424406372107,0.002995148365746804
0.8683498647430117,0.0023098451269180616
0.8722572888488127,0.0016109465497974595
0.8761647129546137,0.0009099287267471416
0.8800721370604148,0.0002178877399633865
0.8839795611662158,-0.0004544603385234136
0.8878869852720168,-0.0010967794468487333
0.8917944093778178,-0.001699113533313928
0.8957018334836189,-0.0022518865563862303
0.8996092575894199,-0.002744981421529947
0.9035166816952209,-0.0031831945314255298
0.907424105801022,-0.0035914168819593285
0.911331529906823,-0.003995871073598334
0.915238954012624,-0.004423433330952152
0.919146378118425,-0.004901633502773008
0.9230538022242261,-0.005458655061955741
0.9269612263300271,-0.00612333510553781
0.9308686504358281,-0.0069251643546992874
0.9347760745416291,-0.007894287154762866
0.9386834986474302,-0.009047754458351364
0.9425909227532312,-0.010252628786554353
0.9464983468590322,-0.011290114324966355
0.9504057709648333,-0.011942031087266287
0.9543131950706343,-0.011991661792488853
0.9582206191764353,-0.011223751865024553
0.9621280432822363,-0.009424509434619675
0.9660354673880374,-0.006381605336376295
0.9699428914938384,-0.0018812809682278117
0.9738503155996394,0.00403711980687522
0.9777577397054404,0.011021185155785684
0.9816651638112415,0.018594801438400185
0.9855725879170425,0.026162229183434742
0.9894800120228435,0.033008103088424764
0.9933874361286446,0.03829743201972509
0.9972948602344456,0.041075599012509956
1.0012022843402466,0.04050411084872184
1.0051097084460476,0.03692268245335639
1.0090171325518487,0.031071003489980063
1.0129245566576497,0.023684465268413703
1.0168319807634507,0.01549399409751371
1.0207394048692517,0.007226051285171967
1.0246468289750528,-0.0003973668616840814
1.0285542530808538,-0.006686429734831948
1.0324616771866548,-0.011403477270403035
1.0363691012924559,-0.014601596970643189
1.0402765253982569,-0.016379337398392417
1.044183949504058,-0.016893978963379554
1.048091373609859,-0.016361533922222254
1.05199879771566,-0.01505674637842698
1.055906221821461,-0.013313092282389033
1.059813645927262,-0.01150959775097091
1.063721070033063,-0.009867280756860048
1.067628494138864,-0.008455040306000364
1.071535918244665,-0.007311313085139517
1.0754433423504661,-0.0064450372394838935
1.0793507664562672,-0.005835652372698624
1.0832581905620682,-0.00543309954690758
1.0871656146678692,-0.005157821282693367
1.0910730387736702,-0.004922755918749351
1.0949804628794713,-0.0047110834180513865
1.0988878869852723,-0.004508802613706697
1.1027953110910733,-0.00430323415193446
1.1067027351968743,-0.004084279682478969
1.1106101593026754,-0.0038444218586096302
1.1145175834084764,-0.003578724337120964
1.1184250075142774,-0.003284831778332604
1.1223324316200785,-0.002962969846089298
1.1262398557258795,-0.0026150527627081172
1.1301472798316805,-0.002239010261449076
1.1340547039374815,-0.0018333532122454482
1.1379621280432826,-0.0013973668855922518
1.1418695521490836,-0.0009307965858505744
1.1457769762548846,-0.00043384765124757215
1.1496844003606856,9.281454612352757e-05
1.1535918244664867,0.0006480646003034292
1.1574992485722877,0.0012303170714667673
1.1614066726780887,0.0018375264859221063
1.1653140967838898,0.0024671873361119413
1.1692215208896908,0.0031163340806127
1.1731289449954918,0.0037815411441347374
1.1770363691012928,0.004458922917522342
1.1809437932070939,0.005144133757753727
1.1848512173128949,0.005833584095320706
1.188758641418696,0.006525384440395083
1.192666065524497,0.007211789743826773
1.196573489630298,0.00788498806566614
1.200480913736099,0.00853766432490703
1.2043883378419,0.009163000299486787
1.208295761947701,0.00975467462628624
1.212203186053502,0.010306862801129715
1.216110610159303,0.010814237178785017
1.2200180342651041,0.011271966972963454
1.2239254583709052,0.011675718256319821
1.2278328824767062,0.012021653960452402
1.2317403065825072,0.012306433875902969
1.2356477306883082,0.012527214652156789
1.2395551547941093,0.012681649797642618
1.2434625788999103,0.012767889679732705
1.2473700030057113,0.012784581524742784
1.2512774271115124,0.012730869417932084
1.2551848512173134,0.012606394303503325
1.2590922753231144,0.012411293984602716
1.2629996994289154,0.012144261186541438
1.2669071235347165,0.01180006258367347
1.2708145476405175,0.011385807214902741
1.2747219717463185,0.010909747297482763
1.2786293958521195,0.010379790192556429
1.2825368199579206,0.009803498405156007
1.2864442440637216,0.00918808958420315
1.2903516681695226,0.008540436522508889
1.2942590922753237,0.007867067156773634
1.2981665163811247,0.007174164567587174
1.3020739404869257,0.006467566979428677
1.3059813645927267,0.005752767760666695
1.3098887886985278,0.005034915423559156
1.3137962128043288,0.0043188136242533655
1.3177036369101298,0.003608921162786013
1.3216110610159308,0.0029093519830831645
1.3255184851217319,0.002223875172960266
1.329425909227533,0.0015559149641221452
1.333333333333334,0.0009085507321630083
1.337240757439134,0.00028451699656657954
1.341148181544935,-0.0003137965792944612
1.3450556056507361,-0.00088434518815763
1.3489630297565371,-0.0014254288788711905
1.3528704538623382,-0.00193569255639405
1.3567778779681392,-0.0024141259817957155
1.3606853020739402,-0.00286006377225634
1.3645927261797413,-0.0032731854010666656
1.3685001502855423,-0.0036535151976280697
1.3724075743913433,-0.004001422347452561
1.3763149984971443,-0.004317556428791234
1.3802224226029454,-0.004602072017831075
1.3841298467087464,-0.004856616100288707
1.3880372708145474,-0.005083286244214817
1.3919446949203484,-0.005284101311574276
1.3958521190261495,-0.005461001458246146
1.3997595431319505,-0.005615848134023675
1.4036669672377515,-0.005750424082614297
1.4075743913435526,-0.005866433341639636
1.4114818154493536,-0.005965501242635502
1.4153892395551546,-0.006049174411051891
1.4192966636609556,-0.0061189207662529915
1.4232040877667567,-0.006176129521517174
1.4271115118725577,-0.006222111184037
1.4310189359783587,-0.006258097554919215
1.4349263600841597,-0.006285241729184755
1.4388337841899608,-0.006304618095768742
1.4427412082957618,-0.006317222337520487
1.4466486324015628,-0.006323971431203487
1.4505560565073639,-0.0063257036474954256
1.4544634806131649,-0.006323178550988176
1.458370904718966,-0.006317077000187797
1.462278328824767,-0.006308001147514534
1.466185752930568,-0.0062964744393028274
1.470093177036369,-0.00628294161580129
1.47400060114217,-0.006267768711172743
1.477908025247971,-0.006251243053494174
1.481815449353772,-0.006233573264756768
1.485722873459573,-0.006214889260865898
1.4896302975653741,-0.00619524225164113
1.4935377216711752,-0.006174604740816202
1.4974451457769762,-0.006153118740480265
1.5013525698827772,-0.006131334223903667
1.5052599939885782,-0.006109308715882895
1.5091674180943793,-0.006087072682738237
1.5130748422001803,-0.0060646552282825695
1.5169822663059813,-0.0060420840938213635
1.5208896904117823,-0.00601938565815268
1.5247971145175834,-0.005996584937567175
1.5287045386233844,-0.005973705585848094
1.5326119627291854,-0.005950769894271274
1.5365193868349865,-0.005927798791605146
1.5404268109407875,-0.005904811844110731
1.5443342350465885,-0.005881827255541643
1.5482416591523895,-0.005858861867144087
1.5521490832581906,-0.005835931157656862
1.5560565073639916,-0.005813049243311356
1.5599639314697926,-0.005790228877831551
1.5638713555755936,-0.0057674814524340205
1.5677787796813947,-0.005744816995827929
1.5716862037871957,-0.0057222441742150335
1.5755936278929967,-0.005699770291289683
1.5795010519987978,-0.005677401288238819
1.5834084761045988,-0.005655141743741975
1.5873159002103998,-0.005632994873971274
1.5912233243162008,-0.005610962532591433
1.5951307484220019,-0.005589045210759762
1.599038172527803,-0.00556724203712616
1.602945596633604,-0.00554555077783312
1.606853020739405,-0.005523967836515726
1.610760444845206,-0.005502488254301653
1.614667868951007,-0.005481105709811172
1.618575293056808,-0.005459812519157141
1.622482717162609,-0.0054385996359450125
1.62639014126841,-0.00541745665127283
1.630297565374211,-0.0053963717937312305
1.6342049894800121,-0.00537533192940344
1.6381124135858132,-0.005354079439011065
1.6420198376916142,-0.0053324085263140135
1.6459272617974152,-0.005310625032264378
1.6498346859032162,-0.005288964560816079
1.6537421100090173,-0.005267584419015931
1.6576495341148183,-0.005246563617003652
1.6615569582206193,-0.005225902868011854
1.6654643823264204,-0.005205524588366051
1.6693718064322214,-0.005185272897484651
1.6732792305380224,-0.005164913617878964
1.6771866546438234,-0.005144134275153196
1.6810940787496245,-0.005122544098004454
1.6850015028554255,-0.0050996740182227395
1.6889089269612265,-0.005074976670690954
1.6928163510670275,-0.005047826393384899
1.6967237751728286,-0.005017519227373273
1.7006311992786296,-0.004983272916817671
1.7045386233844306,-0.004944226908972588
1.7084460474902317,-0.0048994423541854175
1.7123534715960327,-0.004851000930899379
1.7162608957018337,-0.004798611425829754
1.7201683198076347,-0.004735978072214729
1.7240757439134358,-0.004657308904992396
1.7279831680192368,-0.004557347081730268
1.7318905921250378,-0.004431370882625287
1.7357980162308388,-0.004275193710503812
1.7397054403366399,-0.00408516409082163
1.743612864442441,-0.0038581656716639504
1.747520288548242,-0.0035916172237454034
1.751427712654043,-0.0032834726404100457
1.755335136759844,-0.002932220937631355
1.759242560865645,-0.002536886254012236
1.763149984971446,-0.002097027850785012
1.767057409077247,-0.0016127401118114317
1.770964833183048,-0.0010846525435826704
1.7748722572888491,-0.0005139297752193199
1.7787796813946501,9.772844152860019e-05
1.7826871055004512,0.0007480872322816459
1.7865945296062522,0.0014335636611914596
1.7905019537120532,0.0021398186943615595
1.7944093778178543,0.0028487247571087723
1.7983168019236553,0.0035433429139117858
1.8022242260294563,0.004207923790732338
1.8061316501352573,0.004827907575015229
1.8100390742410584,0.005389924015688311
1.8139464983468594,0.005881792423162485
1.8178539224526604,0.0062925216693317226
1.8217613465584614,0.006612310187573035
1.8256687706642625,0.006832545972746495
1.8295761947700635,0.006945806581195234
1.8334836188758645,0.006945859130745434
1.8373910429816656,0.006827549415449195
1.8412984670874666,0.006589669965885093
1.8452058911932676,0.006244236430255521
1.8491133152990686,0.005805475902856855
1.8530207394048697,0.005287399553281684
1.8569281635106707,0.004703802626418814
1.8608355876164717,0.004068264442453269
