time,amplitude
0.0009017132551849549,0.010025131026272144
0.004809137360985982,0.009921345865305482
0.00871656146678701,0.009694832976258894
0.012623985572588037,0.00935218488553889
0.016531409678389064,0.008903865971010947
0.02043883378419009,0.008364212461999507
0.02434625788999112,0.007751324582462652
0.028253681995792146,0.007079455424077352
0.03216110610159317,0.006366545406201315
0.0360685302073942,0.00563303761583913
0.03997595431319523,0.0048969819215364235
0.043883378418996255,0.004174034973379863
0.04779080252479728,0.0034774602029971555
0.05169822663059831,0.00281812782355705
0.05560565073639934,0.0022045148297693317
0.059513074842200364,0.001642704997884827
0.06342049894800139,0.001136388885695402
0.06732792305380242,0.0006868638325339656
0.07123534715960345,0.0002930339592744592
0.07514277126540447,-4.789434053683586e-05
0.0790501953712055,-0.000336933528884272
0.08295761947700653,-0.0005793033825022002
0.08686504358280756,-0.0007806731376558947
0.09077246768860858,-0.0009463043062727975
0.09467989179440961,-0.001081050675942521
0.09858731590021064,-0.0011893583099168456
0.10249474000601166,-0.0012752655471097226
0.10640216411181269,-0.0013424030020972699
0.11030958821761372,-0.001393993565117776
0.11421701232341475,-0.0014328524020716976
0.11812443642921577,-0.0014613869545216623
0.1220318605350168,-0.001481596939692465
0.12593928464081783,-0.0014950743504710672
0.12984670874661886,-0.0015030034554066093
0.13375413285241988,-0.0015061607987103861
0.1376615569582209,-0.0015049152002558751
0.14156898106402194,-0.0014996649417623375
0.14547640516982296,-0.0014911858829764447
0.149383829275624,-0.0014797279600185812
0.15329125338142502,-0.001465541287077142
0.15719867748722605,-0.0014488876172586128
0.16110610159302707,-0.0014300403425875716
0.1650135256988281,-0.0014092844940066878
0.16892094980462868,-0.0013869167413767243
0.1728283739104297,-0.0013632453934765286
0.17673579801623074,-0.001338590398003047
0.18064322212203177,-0.0013132833415713141
0.1845506462278328,-0.0012876674497144572
0.18845807033363382,-0.0012620975868836942
0.19236549443943485,-0.0012369402564483352
0.19627291854523587,-0.0012125736006957809
0.2001803426510369,-0.0011893874008315243
0.20408776675683793,-0.0011677830769791498
0.20799519086263896,-0.0011481736881803328
0.21190261496843998,-0.0011309880926481902
0.215810039074241,-0.001116749563212269
0.21971746318004204,-0.0011056086193179063
0.22362488728584307,-0.001097542445434157
0.2275323113916441,-0.0010925021871471918
0.23143973549744512,-0.0010904129511602992
0.23534715960324615,-0.0010911738052938838
0.23925458370904717,-0.0010946577784854677
0.2431620078148482,-0.0011007118607896894
0.24706943192064923,-0.001109157003378304
0.25097685602645026,-0.0011197881185401846
0.2548842801322513,-0.0011323740796813201
0.2587917042380523,-0.0011466577213248164
0.26269912834385334,-0.0011623558391108966
0.26660655244965437,-0.0011791591897969006
0.2705139765554554,-0.0011967324912572847
0.2744214006612564,-0.001214714422483623
0.27832882476705745,-0.0012327176235846053
0.2822362488728585,-0.0012503286957860392
0.2861436729786595,-0.0012671082014308486
0.29005109708446053,-0.0012825906639790747
0.29395852119026156,-0.0012962845680078749
0.2978659452960626,-0.0013076723592115244
0.3017733694018636,-0.0013162104444014143
0.30568079350766464,-0.0013419447825622891
0.30958821761346567,-0.001396299794506537
0.3134956417192667,-0.0014634127678092306
0.3174030658250677,-0.0015297378544652336
0.32131048993086875,-0.0015840659838229658
0.3252179140366698,-0.0016175248625844001
0.3291253381424708,-0.001623578974805066
0.33303276224827183,-0.001598029581894046
0.33694018635407286,-0.0015390147226139786
0.3408476104598739,-0.0014470092130810556
0.3447550345656749,-0.0013248246467650253
0.34866245867147594,-0.0011776093944891892
0.35256988277727697,-0.0010128486044304044
0.356477306883078,-0.0008403642021190832
0.360384730988879,-0.0006723148904391884
0.36429215509468005,-0.0005231961496282467
0.3681995792004811,-0.0004098402372773256
0.3721070033062821,-0.00035141618833106375
0.37601442741208313,-0.00036942981508764213
0.37992185151788416,-0.0004877237071987967
0.3838292756236852,-0.0007324772316698272
0.3877366997294862,-0.001132206532859591
0.39164412383528724,-0.0017177645324804747
0.39555154794108827,-0.0025223409295984465
0.3994589720468893,-0.003620736142754712
0.4033663961526903,-0.004919625971516222
0.40727382025849135,-0.005284087548316878
0.4111812443642924,-0.0038489069801924576
0.4150886684700934,-0.0002299382598956127
0.41899609257589443,0.0054758967341041395
0.42290351668169546,0.012690608237620403
0.4268109407874965,0.020243096111229583
0.4307183648932975,0.02536147801567127
0.43462578899909854,0.025731532225269055
0.43853321310489957,0.021085282871684975
0.4424406372107006,0.013214446766988783
0.4463480613165016,0.004995408674827171
0.45025548542230265,-0.0016840833851303229
0.4541629095281037,-0.005835977866759354
0.4580703336339047,-0.007360976036359601
0.46197775773970573,-0.006892636502400752
0.46588518184550676,-0.005349546716553668
0.4697926059513078,-0.0036309273080798485
0.4737000300571088,-0.002274710255310646
0.47760745416290984,-0.001451130961717886
0.48151487826871087,-0.0009965654350408807
0.4854223023745119,-0.0007344983431425931
0.4893297264803129,-0.00055690227388908
0.49323715058611395,-0.0003858733732618508
0.497144574691915,-0.0001762056845727982
0.501051998797716,8.460885153580141e-05
0.5049594229035166,0.00038607348891660557
0.5088668470093176,0.0007368535914710972
0.5127742711151186,0.0011408814765526795
0.5166816952209197,0.0015991519541842197
0.5205891193267207,0.0021106152397506565
0.5244965434325217,0.002672176953998999
0.5284039675383227,0.003278698123038327
0.5323113916441238,0.003923392110473696
0.5362188157499248,0.004594868356025035
0.5401262398557258,0.005279189458934241
0.5440336639615269,0.005962009812697816
0.5479410880673279,0.0066285756713318515
0.5518485121731289,0.007263725149372022
0.5557559362789299,0.007851888221873594
0.559663360384731,0.008377086724411413
0.563570784490532,0.008824775238867795
0.567478208596333,0.009182369428490773
0.571385632702134,0.009438693080620618
0.5752930568079351,0.009585834782841736
0.5792004809137361,0.009619149304501591
0.5831079050195371,0.009537257596710693
0.5870153291253382,0.009342046792342613
0.5909227532311392,0.009038670206033965
0.5948301773369402,0.008629543948250882
0.5987376014427412,0.008124442885650313
0.6026450255485423,0.007543347414434416
0.6065524496543433,0.006904833010540944
0.6104598737601443,0.006226049545038126
0.6143672978659453,0.0055227212841246695
0.6182747219717464,0.0048091468891297675
0.6221821460775474,0.004098199416513088
0.6260895701833484,0.0034013263178647854
0.6299969942891495,0.002728549439905488
0.6339044183949505,0.0020884650244863082
0.6378118425007515,0.0014882437085888415
0.6417192666065525,0.0009336305243251575
0.6456266907123536,0.0004289448989378067
0.6495341148181546,-2.291934520017025e-05
0.6534415389239556,-0.0004197306926357725
0.6573489630297566,-0.0007611869436425689
0.6612563871355577,-0.0010524709314307372
0.6651638112413587,-0.0012988114150710417
0.6690712353471597,-0.0015051495945108424
0.6729786594529608,-0.0016761391105740923
0.6768860835587618,-0.0018161460449613398
0.6807935076645628,-0.0019292489202497288
0.6847009317703638,-0.0020192386998929964
0.6886083558761649,-0.002089618788221475
0.6925157799819659,-0.0021436050304420905
0.6964232040877669,-0.0021841257126383644
0.700330628193568,-0.002213821561770413
0.704238052299369,-0.002235045745674948
0.70814547640517,-0.002249863873065273
0.712052900510971,-0.002260053993531287
0.7159603246167721,-0.0022671065975394837
0.7198677487225731,-0.0022722246164329535
0.7237751728283741,-0.0022763234224313783
0.7276825969341751,-0.0022800308286310376
0.7315900210399762,-0.002283687089004806
0.7354974451457772,-0.002287344898402145
0.7394048692515782,-0.0022907693925491215
0.7433122933573793,-0.0022934381639502757
0.7472197174631803,-0.0022959071618266777
0.7511271415689813,-0.002298997040288982
0.7550345656747823,-0.002302407507059855
0.7589419897805834,-0.0023058571686883867
0.7628494138863844,-0.0023090835305500904
0.7667568379921854,-0.002311842996846902
0.7706642620979864,-0.0023139108706071803
0.7745716862037875,-0.0023150813536857075
0.7784791103095885,-0.002315167546763689
0.7823865344153895,-0.002314001449348753
0.7862939585211906,-0.00231143395977495
0.7902013826269916,-0.002307334875202755
0.7941088067327926,-0.002301592891619065
0.7980162308385936,-0.0022941156038372
0.8019236549443947,-0.002284829505496904
0.8058310790501957,-0.002273679989064343
0.8097385031559967,-0.0022606313458321055
0.8136459272617977,-0.002245666765919205
0.8175533513675988,-0.002228788338271077
0.8214607754733998,-0.0022100170506595797
0.8253681995792008,-0.0021893927896829944
0.8292756236850019,-0.0021669743407660255
0.8331830477908029,-0.0021428393881598013
0.8370904718966035,-0.0021170845149418747
0.8409978960024045,-0.002089769801535601
0.8449053201082055,-0.0020610792055943375
0.8488127442140065,-0.002031623497436682
0.8527201683198076,-0.002001991181205816
0.8566275924256086,-0.0019727216541052407
0.8605350165314096,-0.001944305206398782
0.8644424406372107,-0.0019171830214105856
0.8683498647430117,-0.0018917471755251197
0.8722572888488127,-0.0018683406381871746
0.8761647129546137,-0.0018472572719018616
0.8800721370604148,-0.0018287418322346148
0.8839795611662158,-0.0018129899678111896
0.8878869852720168,-0.0018001482203176635
0.8917944093778178,-0.0017903140245004354
0.8957018334836189,-0.0017835357081662272
0.8996092575894199,-0.001779812492182081
0.9035166816952209,-0.0017790944904753619
0.907424105801022,-0.0017812827100337568
0.911331529906823,-0.0017862290509052738
0.915238954012624,-0.0017937363061982432
0.919146378118425,-0.0018035581620813174
0.9230538022242261,-0.0018153991977834702
0.9269612263300271,-0.001828914885593998
0.9308686504358281,-0.0018437115908625174
0.9347760745416291,-0.001859346571998969
0.9386834986474302,-0.0018753279804736144
0.9425909227532312,-0.0018911515634229877
0.9464983468590322,-0.0019065066165343154
0.9504057709648333,-0.0019209314903315571
0.9543131950706343,-0.0019339919147165973
0.9582206191764353,-0.0019453294990367648
0.9621280432822363,-0.001954661732084831
0.9660354673880374,-0.0019617819820990107
0.9699428914938384,-0.001966559496762963
0.9738503155996394,-0.001968939403205789
0.9777577397054404,-0.0019682849570583647
0.9816651638112415,-0.0019682108934369123
0.9855725879170425,-0.00198762518887012
0.9894800120228435,-0.0020615911561033284
0.9933874361286446,-0.0022413183722054717
0.9972948602344456,-0.00259416267856908
1.0012022843402466,-0.0032036261809102753
1.0051097084460476,-0.00415675347671923
1.0090171325518487,-0.005257177840447394
1.0129245566576497,-0.005992198718665079
1.0168319807634507,-0.0057988063646908
1.0207394048692517,-0.004076113505915886
1.0246468289750528,-0.0002507846112778556
1.0285542530808538,0.005761535278311786
1.0324616771866548,0.013287143857229289
1.0363691012924559,0.020836859621083278
1.0402765253982569,0.026112170394757758
1.044183949504058,0.026995221088022704
1.048091373609859,0.022694333226904187
1.05199879771566,0.01482429167780918
1.055906221821461,0.0068180181336704
1.059813645927262,0.0010815732781219328
1.063721070033063,-0.0016797496138834722
1.067628494138864,-0.0018917467586569217
1.071535918244665,-0.0004947582141848943
1.0754433423504661,0.0012051436419098455
1.0793507664562672,0.002501890426805737
1.0832581905620682,0.003243693671440657
1.0871656146678692,0.0035713784823052422
1.0910730387736702,0.0037664876076353875
1.0949804628794713,0.003930862837573067
1.0988878869852723,0.0041212916643871824
1.1027953110910733,0.004362006228296464
1.1067027351968743,0.00465382038452385
1.1106101593026754,0.005003656014458211
1.1145175834084764,0.005415381980739123
1.1184250075142774,0.005889362566600455
1.1223324316200785,0.006422515132747551
1.1262398557258795,0.007008310117357228
1.1301472798316805,0.007636771036077773
1.1340547039374815,0.008296567745171906
1.1379621280432826,0.008981937181491994
1.1418695521490836,0.00966174772497822
1.1457769762548846,0.010303947866110719
1.1496844003606856,0.010880940714123325
1.1535918244664867,0.011369583997003583
1.1574992485722877,0.011751190061492734
1.1614066726780887,0.012011525873085724
1.1653140967838898,0.012140813016031204
1.1692215208896908,0.012133727693331523
1.1731289449954918,0.01198940072674274
1.1770363691012928,0.01171141755677461
1.1809437932070939,0.011307818242690601
1.1848512173128949,0.010788913689115229
1.188758641418696,0.010170249525060392
1.192666065524497,0.009482303997906432
1.196573489630298,0.00875336203093521
1.200480913736099,0.008008384824516922
1.2043883378419,0.007269009856110108
1.208295761947701,0.006553550880261648
1.212203186053502,0.005876997928606762
1.216110610159303,0.005251017309869011
1.2200180342651041,0.004683951609860291
1.2239254583709052,0.00418081969148085
1.2278328824767062,0.003743316694719262
1.2317403065825072,0.003369814036652454
1.2356477306883082,0.003056927053069289
1.2395551547941093,0.0028016459393741364
1.2434625788999103,0.002596348815529022
1.2473700030057113,0.0024337014547234654
1.2512774271115124,0.002306971685409622
1.2551848512173134,0.0022100293913022862
1.2590922753231144,0.0021373465113788902
1.2629996994289154,0.0020839970398795022
1.2669071235347165,0.00204565702630683
1.2708145476405175,0.0020186045754262165
1.2747219717463185,0.0019997198472656436
1.2786293958521195,0.0019864850571157293
1.2825368199579206,0.001976984475529733
1.2864442440637216,0.0019699044283235465
1.2903516681695226,0.0019645332965757024
1.2942590922753237,0.0019607615166273695
1.2981665163811247,0.0019579820111240544
1.3020739404869257,0.001955207601809506
1.3059813645927267,0.0019523509319661486
1.3098887886985278,0.0019493322718076508
1.3137962128043288,0.0019460789721308391
1.3177036369101298,0.0019425254643156975
1.3216110610159308,0.0019386132603253668
1.3255184851217319,0.0019342909527061461
1.329425909227533,0.0019295142145874912
1.333333333333334,0.001924245799682016
1.337240757439134,0.0019184555422854925
1.341148181544935,0.0019121203572768466
1.3450556056507361,0.0019052242401181654
1.3489630297565371,0.0018977582668546925
1.3528704538623382,0.0018897205941148284
1.3567778779681392,0.0018811164591101314
1.3606853020739402,0.0018719581796353168
1.3645927261797413,0.001862265154068258
1.3685001502855423,0.0018520638613699855
1.3724075743913433,0.0018413869905590655
1.3763149984971443,0.0018302147341701426
1.3802224226029454,0.0018184731244558993
1.3841298467087464,0.0018061073819559323
1.3880372708145474,0.0017930804471182117
1.3919446949203484,0.00177937298029908
1.3958521190261495,0.0017649833617632525
1.3997595431319505,0.001749927691683818
1.4036669672377515,0.001734239790142237
1.4075743913435526,0.0017179711971283445
1.4114818154493536,0.0017011911725403467
1.4153892395551546,0.0016839866961848237
1.4192966636609556,0.001666462467776728
1.4232040877667567,0.0016487409069393852
1.4271115118725577,0.0016309621532044933
1.4310189359783587,0.0016132840660121237
1.4349263600841597,0.0015958822247107204
1.4388337841899608,0.0015789499285571004
1.4427412082957618,0.0015626981967164532
1.4466486324015628,0.0015473557682623416
1.4505560565073639,0.0015331691021767007
1.4544634806131649,0.0015203912878763402
1.458370904718966,0.0015088944476947033
1.462278328824767,0.0014990302610525849
1.466185752930568,0.0014912998763282701
1.470093177036369,0.001486003744614085
1.47400060114217,0.0014832416197163953
1.477908025247971,0.0014829125581556069
1.481815449353772,0.0014847149191661655
1.485722873459573,0.0014881463646965571
1.4896302975653741,0.001492503859409308
1.4935377216711752,0.0014969147409559993
1.4974451457769762,0.0014986350353115518
1.5013525698827772,0.0014532233357052986
1.5052599939885782,0.0012776176826494537
1.5091674180943793,0.0008596519155598786
1.5130748422001803,6.325219231977292e-05
1.5169822663059813,-0.0010155622524641366
1.5208896904117823,-0.0017989873116194112
1.5247971145175834,-0.0014080534427019478
1.5287045386233844,0.0011170232623874852
1.5326119627291854,0.006389622494662328
1.5365193868349865,0.013813026177139073
1.5404268109407875,0.021322025251669194
1.5443342350465885,0.025081434163738266
1.5482416591523895,0.023111966494139054
1.5521490832581906,0.0163436729430664
1.5560565073639916,0.007996283955927629
1.5599639314697926,0.0010910196041588396
1.5638713555755936,-0.002917818020442331
1.5677787796813947,-0.003979551895886463
1.5716862037871957,-0.003051968545195724
1.5755936278929967,-0.0014335465145849191
1.5795010519987978,2.9721361543851195e-05
1.5834084761045988,0.0009575530650000443
1.5873159002103998,0.001423029916692769
1.5912233243162008,0.0016646030840436652
1.5951307484220019,0.0018134427895931343
1.599038172527803,0.001959967844236973
1.602945596633604,0.0021579842529708734
1.606853020739405,0.0024246852148904208
1.610760444845206,0.0027446630075979423
1.614667868951007,0.0031215698692882406
1.618575293056808,0.0035619036759083258
1.622482717162609,0.004064834904374115
1.62639014126841,0.004625798375825904
1.630297565374211,0.005236493255628357
1.6342049894800121,0.005884883053370513
1.6381124135858132,0.006555635245390884
1.6420198376916142,0.007233595775315321
1.6459272617974152,0.007895520498427915
1.6498346859032162,0.008518737753747702
1.6537421100090173,0.009083674449418499
1.6576495341148183,0.009573856062708913
1.6615569582206193,0.009975906640012319
1.6654643823264204,0.01027954879684688
1.6693718064322214,0.01047760371785554
1.6732792305380224,0.010565991156806022
1.6771866546438234,0.010543729436590828
1.6810940787496245,0.010412935449227247
1.6850015028554255,0.010176355956797868
1.6889089269612265,0.009828748111422527
1.6928163510670275,0.009382496055156687
1.6967237751728286,0.008852949795947388
1.7006311992786296,0.008255365402154484
1.7045386233844306,0.0076049050025506475
1.7084460474902317,0.006916636786321366
1.7123534715960327,0.0062055350030649405
1.7162608957018337,0.0054864799627924905
1.7201683198076347,0.004774258035927948
1.7240757439134358,0.0040835616533080625
1.7279831680192368,0.0034290266936438042
1.7318905921250378,0.002820979987748917
1.7357980162308388,0.0022619393977365366
1.7397054403366399,0.001753141083918944
1.743612864442441,0.0012951295712161377
1.747520288548242,0.0008877577491558306
1.751427712654043,0.0005301868718734491
1.755335136759844,0.0002208865581121381
1.759242560865645,-4.2365208777241526e-05
1.763149984971446,-0.00026248208083611783
1.767057409077247,-0.0004430693454981977
1.770964833183048,-0.0005884239255894768
1.7748722572888491,-0.0007035343793282342
1.7787796813946501,-0.0007940809003250324
1.7826871055004512,-0.0008664353175827141
1.7865945296062522,-0.0009255867532233994
1.7905019537120532,-0.0009720959606428672
1.7944093778178543,-0.0010080321693778712
1.7983168019236553,-0.001035335885982941
1.8022242260294563,-0.0010557426778415582
1.8061316501352573,-0.0010707831731661564
1.8100390742410584,-0.0010817830609981206
1.8139464983468594,-0.0010898630912077878
1.8178539224526604,-0.0010959390744944473
1.8217613465584614,-0.0011007218823863392
1.8256687706642625,-0.0011047174472406558
1.8295761947700635,-0.0011082267622435419
1.8334836188758645,-0.0011113458814100926
1.8373910429816656,-0.0011139659195843565
1.8412984670874666,-0.0011158963879581943
1.8452058911932676,-0.001117602226256464
1.8491133152990686,-0.0011191161873379942
1.8530207394048697,-0.0011203566881746155
1.8569281635106707,-0.0011212488383839612
1.8608355876164717,-0.0011217244402294678
1.8647430117222727,-0.0011217219886203748
1.8686504358280738,-0.001121186671111725
1.8725578599338748,-0.001120070367904364
1.8764652840396758,-0.0011183316518449408
1.8803727081454769,-0.0011159357884259074
1.8842801322512779,-0.0011128547357855192
1.888187556357079,-0.0011090671447078345
1.89209498046288,-0.0011045583586227145
1.896002404568681,-0.0010993204136058238
1.899909828674482,-0.0010933520383786303
1.903817252780283,-0.0010866586543084047
1.907724676886084,-0.001079252375408221
1.911632100991885,-0.001071152008336956
1.915539525097686,-0.0010623830523992903
1.9194469492034871,-0.0010529776995457068
1.9233543733092882,-0.001042974834372492
1.9272617974150892,-0.0010324237934624218
1.9311692215208902,-0.0010214403425554475
1.9350766456266912,-0.0010101521588644414
1.9389840697324923,-0.000998672723557111
1.9428914938382933,-0.0009871081815457311
1.9467989179440943,-0.0009755573414871434
1.9507063420498953,-0.0009641116757827567
1.9546137661556964,-0.0009528553205785471
1.9585211902614974,-0.0009418650757650579
1.9624286143672984,-0.0009312104049773996
1.9663360384730995,-0.0009209534355952498
1.9702434625789005,-0.0009111489587428532
1.9741508866847015,-0.0009018444292890218
1.9780583107905025,-0.0008930799658471347
1.9819657348963036,-0.0008848883507751382
1.9858731590021046,-0.0008772950301755456
1.9897805831079056,-0.0008703181138954376
1.9936880072137066,-0.0008639683755264619
1.9975954313195077,-0.0008582492524048335
2.001502855425308,-0.0008531568456113356
2.005410279531109,-0.0008486799199713152
2.00931770363691,-0.00084479990405469
2.013225127742711,-0.0008414908901759433
2.017132551848512,-0.0008387196343941262
2.021039975954313,-0.0008364455565128565
2.024947400060114,-0.0008346212359618052
2.028854824165915,-0.0008333205147312715
2.032762248271716,-0.0008325832862350243
2.036669672377517,-0.0008323797588716202
2.040577096483318,-0.0008327211900419207
2.044484520589119,-0.0008336598861490919
2.04839194469492,-0.0008352892025986046
2.052299368800721,-0.0008377435437982342
2.056206792906522,-0.0008411983631580608
2.0601142170123232,-0.0008492040375201551
2.0640216411181243,-0.0008634057916325204
2.0679290652239253,-0.0008910214935737068
2.0718364893297263,-0.0009692540254128697
2.0757439134355273,-0.0011659240098065352
2.0796513375413284,-0.0015794698099985995
2.0835587616471294,-0.002327055872040779
2.0874661857529304,-0.0033714860667661832
2.0913736098587314,-0.004422461070766305
2.0952810339645325,-0.004975907960768632
2.0991884580703335,-0.004340875077937147
2.1030958821761345,-0.001848752086693388
2.1070033062819356,0.003009403227940432
2.1109107303877366,0.009936654839052941
2.1148181544935376,0.017742447131311102
2.1187255785993386,0.024306589601155518
2.1226330027051397,0.027036204419540116
2.1265404268109407,0.024804406564986593
2.1304478509167417,0.01828376017440444
2.1343552750225427,0.009890630286077255
2.1382626991283438,0.002140651996817502
2.142170123234145,-0.003636970654372214
2.146077547339946,-0.006848542071174477
2.149984971445747,-0.007657845036623668
2.153892395551548,-0.006764475750153366
2.157799819657349,-0.005089068829209859
2.16170724376315,-0.0034273263681400268
2.165614667868951,-0.0022144323808085163
2.169522091974752,-0.0015253911603795843
2.173429516080553,-0.0011647986698055403
2.177336940186354,-0.0009427740982206192
2.181244364292155,-0.0007389202381076136
2.185151788397956,-0.000500092312740378
2.189059212503757,-0.00022228646138931486
2.192966636609558,0.00010556936156851343
2.196874060715359,0.0004882494151341089
2.20078148482116,0.0009281304231381659
2.2046889089269612,0.001425364867412173
2.2085963330327623,0.001977880987788414
2.2125037571385633,0.002587610963455469
2.2164111812443643,0.0032518749642860903
2.2203186053501653,0.003947371443691798
2.2242260294559664,0.004651589198525034
2.2281334535617674,0.005343372183732405
2.2320408776675684,0.006002919512354675
2.2359483017733695,0.006611785455526771
2.2398557258791705,0.007152879442477781
2.2437631499849715,0.007610466060530953
2.2476705740907725,0.0079701650551037
2.2515779981965736,0.00821895132970759
2.2554854223023746,0.008345154945948358
2.2593928464081756,0.0083384611235259
2.2633002705139766,0.008189610068545367
2.2672076946197777,0.007889114905164323
2.2711151187255787,0.007456678000965596
2.2750225428313797,0.00691939777284565
2.2789299669371808,0.006302407652388773
2.282837391042982,0.00562887608586707
2.286744815148783,0.004920006534240469
2.290652239254584,0.0041950374731567165
2.294559663360385,0.0034712423929513774
2.298467087466186,0.0027639297986478415
2.302374511571987,0.0020864432099573105
2.306281935677788,0.0014501611612788151
2.310189359783589,0.0008644972016992013
2.31409678388939,0.0003368998949931333
2.318004207995191,-0.00012714718037690025
2.321911632100992,-0.0005241208027726972
2.325819056206793,-0.0008541959668600645
2.329726480312594,-0.0011240979198768129
2.333633904418395,-0.0013412444388346849
2.337541328524196,-0.0015125659135638257
2.341448752629997,-0.0016445053467127823
2.345356176735798,-0.0017430183537485047
2.3492636008415992,-0.0018135731629563441
2.3531710249474003,-0.0018611506154400546
2.3570784490532013,-0.0018902441651217929
2.3609858731590023,-0.0019048598787421171
2.3648932972648034,-0.0019085164358599886
2.3688007213706044,-0.0019042451288527676
2.3727081454764054,-0.0018945898629162223
2.3766155695822064,-0.0018816071560645198
2.3805229936880075,-0.00186687257289239
2.3844304177938085,-0.0018516989910530423
2.3883378418996095,-0.001836682409530276
2.3922452660054105,-0.0018221243644042729
2.3961526901112116,-0.0018082824661087194
2.4000601142170126,-0.0017953703994308078
2.4039675383228136,-0.0017835579235112357
2.4078749624286147,-0.0017729708718442062
2.4117823865344157,-0.0017636911522774274
2.4156898106402167,-0.0017557567470121126
2.4195972347460177,-0.0017491617126029811
2.4235046588518188,-0.0017438561799582573
2.42741208295762,-0.0017397463543396704
2.431319507063421,-0.0017366945153624556
2.435226931169222,-0.0017345190169953532
2.439134355275023,-0.001732994287560609
2.443041779380824,-0.0017318508297339739
2.446949203486625,-0.0017308873447015416
2.450856627592426,-0.0017301102978795014
2.454764051698227,-0.0017294873857147332
2.458671475804028,-0.0017289869679798949
2.462578899909829,-0.0017285788282896454
2.46648632401563,-0.0017282341741006449
2.470393748121431,-0.0017279256367115552
2.474301172227232,-0.0017276272712630387
2.478208596333033,-0.0017273145567377598
2.482116020438834,-0.0017269643959603833
2.486023444544635,-0.0017265551155975754
2.4899308686504362,-0.001726066466158004
2.4938382927562373,-0.0017254796219923377
2.4977457168620383,-0.0017247771812932463
2.5016531409678393,-0.0017239431660954012
2.5055605650736403,-0.0017229630222754745
2.5094679891794414,-0.00172182361955214
2.5133754132852424,-0.0017205132514860723
2.5172828373910434,-0.0017190216354799476
2.5211902614968444,-0.0017173399127784427
2.5250976856026455,-0.0017154589218604215
2.5290051097084465,-0.001713299643321687
2.5329125338142475,-0.001710764387258978
2.5368199579200486,-0.0017077796462354267
2.5407273820258496,-0.0017042787817258915
2.5446348061316506,-0.0017002020241169557
2.5485422302374516,-0.001695496472706928
2.5524496543432527,-0.001690116095705842
2.5563570784490537,-0.0016840217302354573
2.5602645025548547,-0.0016771810823292582
2.5641719266606557,-0.001669568726932454
2.5680793507664568,-0.001661217044456262
2.571986774872258,-0.0016526316382069436
2.575894198978059,-0.0016431726122012778
2.57980162308386,-0.0016322859471462735
2.583709047189661,-0.0016199501846420462
2.587616471295462,-0.001606676427181816
2.591523895401263,-0.0015935083381519095
2.595431319507064,-0.0015820221418317583
2.599338743612865,-0.0015743266233939005
2.603246167718666,-0.0015632963254588782
2.607153591824467,-0.0016148846348821152
2.611061015930268,-0.001843970481812679
2.614968440036069,-0.0023364831271625907
2.61887586414187,-0.0031488702071487138
2.622783288247671,-0.004262152869164561
2.626690712353472,-0.00506660075495914
2.630598136459273,-0.004673946653385178
2.6345055605650742,-0.0023398084155637467
2.6384129846708753,0.0025446007368497567
2.6423204087766763,0.009854127440307768
2.6462278328824773,0.01729370482715497
2.6501352569882783,0.022271740778073864
2.6540426810940794,0.02228016191804084
2.6579501051998804,0.0167310884016799
2.6618575293056814,0.008702343742952227
2.6657649534114825,0.0009806043752194002
2.6696723775172826,-0.004504157063343625
2.6735798016230836,-0.007043588522271653
2.6774872257288846,-0.007202100993883196
2.6813946498346857,-0.0058580728800371636
2.6853020739404867,-0.004093431433002444
2.6892094980462877,-0.0027404804868494544
2.6931169221520888,-0.0018997678722346592
2.69702434625789,-0.0014774335351878886
2.700931770363691,-0.0012532275019584808
2.704839194469492,-0.0010653190114150524
2.708746618575293,-0.0008678051820517098
2.712654042681094,-0.000631071180838268
2.716561466786895,-0.000342388779595273
2.720468890892696,-1.7405653084703572e-06
2.724376314998497,0.0003954539119661435
2.728283739104298,0.0008515446774566245
2.732191163210099,0.001365667035051325
2.7360985873159,0.0019338593747067732
2.740006011421701,0.0025490631724476723
2.743913435527502,0.0032011229903668977
2.747820859633303,0.003878563547760193
2.751728283739104,0.004571025248226373
2.755635707844905,0.005251670927610732
2.759543131950706,0.005894324059938191
2.7634505560565072,0.006475996538385088
2.7673579801623083,0.006976888675279173
2.7712654042681093,0.007380389202099618
2.7751728283739103,0.007673075269477008
2.7790802524797114,0.007844712447193347
2.7829876765855124,0.007888254724182052
2.7868951006913134,0.007799844508527964
2.7908025247971144,0.0075787772988154724
2.7947099489029155,0.007220855700572866
2.7986173730087165,0.006742862264685394
2.8025247971145175,0.006172805510853181
2.8064322212203185,0.0055363703292989255
2.8103396453261196,0.004856917980767895
2.8142470694319206,0.0041554860965279305
2.8181544935377216,0.0034507886783694437
2.8220619176435227,0.0027592160986054147
2.8259693417493237,0.0020948351000714023
2.8298767658551247,0.0014693887961255286
2.8337841899609257,0.0008922966706484941
2.8376916140667268,0.00037065457804356505
2.841599038172528,-9.076525676341828e-05
2.845506462278329,-0.0004895142383240436
2.84941388638413,-0.0008251004029260682
2.853321310489931,-0.0010997619366455462
2.857228734595732,-0.0013210459945661107
2.861136158701533,-0.0014964577932821987
2.865043582807334,-0.0016329452826699701
2.868951006913135,-0.0017368991458873032
2.872858431018936,-0.0018141527993737977
2.876765855124737,-0.0018699823928507748
2.880673279230538,-0.0019091068093212758
2.884580703336339,-0.0019356876650700645
2.88848812744214,-0.0019533293096636213
2.892395551547941,-0.0019650788259501515
2.896302975653742,-0.0019734260300595793
2.900210399759543,-0.0019803034714035517
2.9041178238653442,-0.001987086432675431
2.9080252479711453,-0.001994592929850307
2.9119326720769463,-0.002003083712184987
2.9158400961827473,-0.0020124993837826012
2.9197475202885483,-0.0020237458258767858
2.9236549443943494,-0.002036603579601222
2.9275623685001504,-0.002050621361704308
2.9314697926059514,-0.002065370379505846
2.9353772167117524,-0.002080444330897044
2.9392846408175535,-0.0020954594043405147
2.9431920649233545,-0.0021100542788702755
2.9470994890291555,-0.00212389012409175
2.9510069131349566,-0.002136650600181765
2.9549143372407576,-0.002148041857888554
2.9588217613465586,-0.0021577925385317534
2.9627291854523596,-0.0021656537740024073
2.9666366095581607,-0.0021713991867629624
2.9705440336639617,-0.002174824889847271
2.9744514577697627,-0.002175749486860592
2.9783588818755637,-0.0021740140719795865
2.9822663059813648,-0.002169482229952323
2.986173730087166,-0.0021620400360982737
2.990081154192967,-0.0021515753570333558
2.993988578298768,-0.0021381153313394102
2.997896002404569,-0.002122047772479145
3.00180342651037,-0.002103771409160723
3.005710850616171,-0.002083666034920867
3.009618274721972,-0.002062092508124862
3.013525698827773,-0.002039392751966554
3.017433122933574,-0.0020158897544683505
3.021340547039375,-0.0019918875684812203
3.025247971145176,-0.0019676713116846944
3.029155395250977,-0.0019435071665868638
3.033062819356778,-0.0019196423805243816
3.036970243462579,-0.0018963052656624623
3.04087766756838,-0.0018737051989948816
3.044785091674181,-0.0018520326223439765
3.0486925157799822,-0.0018314590423606455
3.0525999398857833,-0.0018121370305243486
3.0565073639915843,-0.0017942002231431068
3.0604147880973853,-0.0017777633213535027
3.0643222122031863,-0.0017629220911206801
3.0682296363089874,-0.0017497533632383445
3.0721370604147884,-0.0017383150333287625
3.0760444845205894,-0.001728557599004053
3.0799519086263905,-0.0017202808007997894
3.0838593327321915,-0.0017133716800671603
3.0877667568379925,-0.0017077116836004666
3.0916741809437935,-0.0017031744976962635
3.0955816050495946,-0.0016996260481533616
3.0994890291553956,-0.0016969245002728265
3.1033964532611966,-0.0016958186680629229
3.1073038773669976,-0.0016966216238273176
3.1112113014727987,-0.0016954733583098773
3.1151187255785997,-0.0016913766248756316
3.1190261496844007,-0.001686640180213903
3.1229335737902018,-0.0016868787843383074
3.126840997896003,-0.001701013200586754
3.130748422001804,-0.001727100646081844
3.134655846107605,-0.0018021476279181678
3.138563270213406,-0.0021855513138007406
3.142470694319207,-0.002969573029289767
3.146378118425008,-0.004027222371440524
3.150285542530809,-0.005012257208803365
3.15419296663661,-0.005454428558282234
3.158100390742411,-0.004124829509784264
3.162007814848212,-0.00010467975205004799
3.165915238954013,0.00642075743532175
3.169822663059814,0.01416139088878749
3.173730087165615,0.02069413686459466
3.177637511271416,0.022938584146843348
3.181544935377217,0.019680194819391282
3.185452359483018,0.012214690194465735
3.189359783588819,0.003935525472729119
3.1932672076946202,-0.0026585755470637535
3.1971746318004213,-0.006486881483512463
3.2010820559062223,-0.007527911394457753
3.2049894800120233,-0.006624977505740847
3.2088969041178244,-0.004920897231352464
3.2128043282236254,-0.003337659747805999
3.2167117523294264,-0.002299388810699703
3.2206191764352274,-0.0017460068541246595
3.2245266005410285,-0.0014457486700036946
3.2284340246468295,-0.0012552535498405737
3.2323414487526305,-0.0010744500275166506
3.2362488728584315,-0.0008484303929109337
3.2401562969642326,-0.0005674506919000825
3.2440637210700336,-0.0002405398278908094
3.2479711451758346,0.00014348944976031407
3.2518785692816357,0.0005873697498452741
3.2557859933874367,0.0010910352181995621
3.2596934174932377,0.001651625239443944
3.2636008415990387,0.0022634844369844613
3.2675082657048398,0.0029197417418065567
3.271415689810641,0.0036156245046776187
3.275323113916442,0.004327649431092128
3.279230538022243,0.005031072577057162
3.283137962128044,0.00570314833817495
3.287045386233845,0.006323129449642873
3.290952810339646,0.006872266986253464
3.294860234445447,0.00733381036239441
3.298767658551248,0.007693007332048549
3.302675082657049,0.00793710398879387
3.30658250676285,0.008055344765803517
3.310489930868651,0.008038972435845785
3.314397354974452,0.007878891062629815
3.318304779080253,0.0075719280631634765
3.322212203186054,0.007142107678051569
3.326119627291855,0.0066142634688910185
3.330027051397656,0.006011539971585865
3.3339344755034572,0.005355392696347267
3.3378418996092574,0.004665588127693648
3.3417493237150584,0.0039602037244500735
3.3456567478208594,0.0032556279197491975
3.3495641719266604,0.0025665601210306237
3.3534715960324615,0.0019060107100410803
3.3573790201382625,0.0012853010428344053
3.3612864442440635,0.0007140634497715473
3.3651938683498646,0.0002002412355205695
3.3691012924556656,-0.000249911320943352
3.3730087165614666,-0.0006336535445339007
3.3769161406672676,-0.0009564551805746177
3.3808235647730687,-0.0012253211308375683
3.3847309888788697,-0.001446826994525395
3.3886384129846707,-0.0016271190697050018
3.3925458370904717,-0.0017719143533075582
3.3964532611962728,-0.001886500541128495
3.400360685302074,-0.0019757360278275064
3.404268109407875,-0.0020440499069285497
3.408175533513676,-0.0020954419708198455
3.412082957619477,-0.0021334827107538767
3.415990381725278,-0.002161313316847392
3.419897805831079,-0.0021816456780813964
3.42380522993688,-0.002196762382301168
3.427712654042681,-0.0022085056725256185
3.431620078148482,-0.002217859795215759
3.435527502254283,-0.0022250257725635364
3.439434926360084,-0.0022301343882963607
3.443342350465885,-0.002233293746335094
3.447249774571686,-0.0022345892707940503
3.451157198677487,-0.002234083705980996
3.455064622783288,-0.0022318171163971485
3.458972046889089,-0.0022278068867371778
3.4628794709948902,-0.002222047721889205
3.4667868951006913,-0.002214511646934804
3.4706943192064923,-0.0022051480071490007
3.4746017433122933,-0.0021938834680002716
3.4785091674180943,-0.0021806220151505463
3.4824165915238954,-0.002165244954455206
3.4863240156296964,-0.0021476109119630835
3.4902314397354974,-0.0021275628175797747
3.4941388638412985,-0.002105261084378222
3.4980462879470995,-0.0020810938006710373
3.5019537120529005,-0.0020554414315960157
3.5058611361587015,-0.002028674673743469
3.5097685602645026,-0.002001154455156223
3.5136759843703036,-0.0019732319353296212
3.5175834084761046,-0.0019452485052115216
3.5214908325819057,-0.0019175357872022985
3.5253982566877067,-0.0018904156351548422
3.5293056807935077,-0.0018642001343745576
3.5332131048993087,-0.001839191601619367
3.5371205290051098,-0.0018156825850997069
3.541027953110911,-0.0017939558644785305
3.544935377216712,-0.0017742844508713065
3.548842801322513,-0.0017569315868460195
3.552750225428314,-0.0017421507464231696
3.556657649534115,-0.0017301856350757728
3.560565073639916,-0.001721270189729361
3.564472497745717,-0.0017156285787619811
3.568379921851518,-0.0017133955049349562
3.572287345957319,-0.0017142824714756482
3.57619477006312,-0.0017180736090483528
3.580102194168921,-0.0017245468580303121
3.584009618274722,-0.0017334460946058217
3.587917042380523,-0.0017444811307662296
3.591824466486324,-0.0017573277143099369
3.595731890592125,-0.0017716275288423983
3.599639314697926,-0.0017869881937761212
3.6035467388037272,-0.001802983264330666
3.6074541629095283,-0.0018191522315326462
3.6113615870153293,-0.001835031182713113
3.6152690111211303,-0.001850635436776304
3.6191764352269313,-0.0018652680428232332
3.6230838593327324,-0.0018780950217839492
3.6269912834385334,-0.0018885010424417937
3.6308987075443344,-0.0018960894214334033
3.6348061316501354,-0.0019006821232487093
3.6387135557559365,-0.0019023197602309379
3.6426209798617375,-0.0019012615925766095
3.6465284039675385,-0.001897985528335539
3.6504358280733396,-0.0018944042695470467
3.6543432521791406,-0.0018947422723105821
3.6582506762849416,-0.0018913958911064067
3.6621581003907426,-0.0018805567246039788
3.6660655244965437,-0.0018645913138968231
3.6699729486023447,-0.00185204114250253
3.6738803727081457,-0.001857622636362756
3.6777877968139467,-0.001902227163843224
3.6816952209197478,-0.002012921035733723
3.685602645025549,-0.0022229455052481073
3.68951006913135,-0.002567217250872233
3.693417493237151,-0.0030941924752329476
3.697324917342952,-0.0038461887279335446
3.701232341448753,-0.004803276734688706
3.705139765554554,-0.005881242265082937
3.709047189660355,-0.006931586132570562
3.712954613766156,-0.0077415241944757286
3.716862037871957,-0.008066725271034355
3.720769461977758,-0.007623660064524374
3.724676886083559,-0.006066105700237551
3.72858431018936,-0.003172879390763865
3.732491734295161,0.0011445520014916801
3.736399158400962,0.006842071964309063
3.740306582506763,0.013742914335653243
3.744214006612564,0.021631914860450064
3.7481214307183652,0.029709973892339137
3.7520288548241663,0.03657042558208333
3.7559362789299673,0.041179731283916346
3.7598437030357683,0.04290652856694177
3.7637511271415693,0.04152163121513315
3.7676585512473704,0.037198029227333854
3.7715659753531714,0.03051088881725719
3.7754733994589724,0.02243981084704459
3.7793808235647735,0.014082217769635887
3.7832882476705745,0.006186285792759819
3.7871956717763755,-0.0006917227473712331
3.7911030958821765,-0.006168017756634801
3.7950105199879776,-0.010031281382998344
3.7989179440937786,-0.012242668016519229
3.8028253681995796,-0.012935804289344752
3.8067327923053806,-0.012416789075712094
3.8106402164111817,-0.011155929446846123
3.8145476405169827,-0.009533199766134221
3.8184550646227837,-0.007790259880833409
3.8223624887285848,-0.006130072411737302
3.826269912834386,-0.004695745822082547
3.830177336940187,-0.003570534417548815
3.834084761045988,-0.002777838346258806
3.837992185151789,-0.0022812035987782465
3.84189960925759,-0.0019843220081158797
3.845807033363391,-0.0017466781469582635
3.849714457469192,-0.0015398073335963604
3.853621881574993,-0.0013536166186272176
3.857529305680794,-0.0011705122316862425
3.861436729786595,-0.0009766204318274892
3.865344153892396,-0.0007617875075236601
3.869251577998197,-0.0005195797766661032
3.873159002103998,-0.0002472835865648139
3.877066426209799,5.409468605156471e-05
3.8809738503156,0.0003830691693294034
3.884881274421401,0.0007429846704159564
3.888788698527202,0.0011350912700618999
3.8926961226330032,0.0015600802018358479
3.8966035467388043,0.002018131427512919
3.9005109708446053,0.0025089136370747374
3.9044183949504063,0.0030315842487094314
3.9083258190562074,0.003584789408811637
3.9122332431620084,0.004166663991982492
3.9161406672678094,0.004774831601029641
3.9200480913736104,0.005406404566967237
3.9239555154794115,0.006058025683839377
3.9278629395852125,0.006730611326476584
3.9317703636910135,0.00741988829034888
3.9356777877968145,0.008117135946505313
3.9395852119026156,0.008814057308968537
3.9434926360084166,0.009502779034734812
3.9474000601142176,0.010175851423774002
3.9513074842200187,0.010826248419029579
3.9552149083258197,0.01144736760641862
3.9591223324316207,0.012033030214831812
3.9630297565374217,0.012577481116133441
3.9669371806432228,0.013075388825161405
3.970844604749024,0.013521845499727205
3.974752028854825,0.013912366940615949
3.978659452960626,0.014242892591586348
3.982566877066427,0.014509785539370726
3.986474301172228,0.014709832513675008
3.990381725278029,0.014840243887178722
3.99428914938383,0.014898653675535013
3.998196573489631,0.014883119537370619
4.002103997595432,0.014792122774285894
4.006011421701232,0.014624568330854834
4.009918845807033,0.014377047928972236
4.013826269912834,0.014047538662116863
4.017733694018635,0.01364444452665454
4.021641118124436,0.013176199437509953
4.025548542230237,0.012650905145447734
4.029455966336038,0.012076331237072444
4.033363390441839,0.011459915134828594
4.03727081454764,0.01080876209700063
4.041178238653441,0.01012964521771293
4.045085662759242,0.009429005426929826
4.0489930868650434,0.008712951490455574
4.0529005109708445,0.007987260009934377
4.0568079350766455,0.007257375422850378
4.0607153591824465,0.006528410002527657
4.0646227832882476,0.005805143858130229
4.068530207394049,0.005092024934662057
4.07243763149985,0.0043931690129670325
4.076345055605651,0.0037123597097289945
4.080252479711452,0.003053048477471721
4.084159903817253,0.002418354604558925
4.088067327923054,0.0018110652151942554
4.091974752028855,0.0012336352694213154
4.095882176134656,0.0006881875631236222
4.099789600240457,0.00017651272802465985
4.103697024346258,-0.00029993076831217116
4.107604448452059,-0.000740016622483514
4.11151187255786,-0.0011429514960739488
4.115419296663661,-0.001509608943883122
4.119326720769462,-0.001841828778485654
4.123234144875263,-0.002140798240539702
4.127141568981064,-0.0024078523277191854
4.131048993086865,-0.0026444737947137822
4.134956417192666,-0.0028522931532289336
4.138863841298467,-0.0030330886719858383
4.142771265404268,-0.0031933940956519447
4.146678689510069,-0.003343374602913637
4.15058611361587,-0.0034558511365837905
4.154493537721671,-0.0035148154215208656
4.158400961827472,-0.0035211530125577586
4.162308385933273,-0.0034926432945018003
4.166215810039074,-0.003463959482134757
4.170123234144875,-0.0034557282306471155
4.174030658250676,-0.003440073716584075
4.177938082356477,-0.0034183212339822266
4.181845506462278,-0.003392337456283276
4.185752930568079,-0.0033636506955060934
4.18966035467388,-0.003333450902246713
4.1935677787796815,-0.003302672136717737
4.1974752028854825,-0.0032721712822031635
4.2013826269912835,-0.003242545956311402
4.2052900510970845,-0.003214315841934102
4.209197475202886,-0.003187933537032786
4.213104899308687,-0.0031637845546388477
4.217012323414488,-0.003142187322853553
4.220919747520289,-0.00312339318484804
4.22482717162609,-0.0031075863988633177
4.228734595731891,-0.0030948841382102675
4.232642019837692,-0.003085336491269643
4.236549443943493,-0.0030789264614920694
4.240456868049294,-0.003075569967398044
4.244364292155095,-0.0030751158425779347
4.248271716260896,-0.003077345835691983
4.252179140366697,-0.0030819746104703023
4.256086564472498,-0.003088649745712876
4.259993988578299,-0.0030969859712520293
4.2639014126841,-0.0031068537228882303
4.267808836789901,-0.0031177488540862944
4.271716260895702,-0.003129090329070493
4.275623685001503,-0.0031403455899169535
4.279531109107304,-0.003151030556553662
4.283438533213105,-0.003160709626760461
4.287345957318906,-0.0031689956761690504
4.291253381424707,-0.0031755500582629865
4.295160805530508,-0.0031800826043776836
4.299068229636309,-0.0031823516237004124
4.30297565374211,-0.0031821639032703014
4.306883077847911,-0.0031793747079783357
4.310790501953712,-0.0031738877805673575
4.314697926059513,-0.0031656553416320662
4.318605350165314,-0.0031546780896190185
4.322512774271115,-0.003141005200826628
4.326420198376916,-0.003124734329405166
4.330327622482717,-0.0031060116073567596
4.334235046588518,-0.0030850316445353945
4.3381424706943195,-0.003062037528646913
4.3420498948001205,-0.0030373162608640547
4.3459573189059215,-0.0030111780701431914
4.3498647430117225,-0.002983965716574169
4.353772167117524,-0.0029560164498159632
4.357679591223325,-0.0029276573647946565
4.361587015329126,-0.002899205401703439
4.365494439434927,-0.002870967346002608
4.369401863540728,-0.0028432398284195673
4.373309287646529,-0.002817867326570242
4.37721671175233,-0.002797103421105897
4.381124135858131,-0.002773996639783887
4.385031559963932,-0.0027455822424480966
4.388938984069733,-0.0027140306785443766
4.392846408175534,-0.0026866475871205418
4.396753832281335,-0.002675873796826373
4.400661256387136,-0.002699285325913615
4.404568680492937,-0.00277156730865681
4.408476104598738,-0.0030459687357487237
4.412383528704539,-0.003718202474406942
4.41629095281034,-0.004728053310194403
4.420198376916141,-0.005752118682115002
4.424105801021942,-0.006151823725378789
4.428013225127743,-0.004735084416619391
4.431920649233544,-0.0008123500173312058
4.435828073339345,0.005549555011412841
4.439735497445146,0.01344487584467682
4.443642921550947,0.01967196246041582
4.447550345656748,0.02103051779945137
4.451457769762549,0.01682386652102788
4.45536519386835,0.008964914893081322
4.459272617974151,0.0009085027856732507
4.463180042079952,-0.004981025632928328
4.467087466185753,-0.007875481434532356
4.470994890291554,-0.00805183435152308
4.474902314397355,-0.006774184688369306
4.4788097385031564,-0.005131930535979523
4.4827171626089575,-0.003789998834907806
4.4866245867147585,-0.0029888453753538343
4.4905320108205595,-0.002547234238098793
4.4944394349263606,-0.002262609427718965
4.498346859032162,-0.002059003888945716
4.502254283137963,-0.0018751625056127638
4.506161707243764,-0.0016643077054631541
4.510069131349565,-0.0013941394601492641
4.513976555455366,-0.0010468352852328027
4.517883979561167,-0.000619050240184799
4.521791403666968,-0.00012191692838562718
4.525698827772769,0.0004236537193147521
4.52960625187857,0.001022085792530272
4.533513675984371,0.0016658318638655615
4.537421100090172,0.002341052239629797
4.541328524195973,0.0030319841050748956
4.545235948301774,0.0037209415243955137
4.549143372407575,0.004388315440729049
4.553050796513376,0.0050125736761556395
4.556958220619177,0.005570260931698162
4.560865644724978,0.006036130880034105
4.564773068830779,0.006389246420269178
4.56868049293658,0.006617017745860871
4.572587917042381,0.006711428245773289
4.576495341148182,0.006669068794034835
4.580402765253983,0.006491137749738194
4.584310189359784,0.006183440957040345
4.588217613465585,0.005756391745162555
4.592125037571386,0.005225010928390381
4.596032461677187,0.004608926806073667
4.599939885782988,0.003932375162626554
4.603847309888789,0.0032241992675274595
4.60775473399459,0.0025108413922429336
4.611662158100391,0.0018078035008786836
4.615569582206192,0.0011322056728084759
4.619477006311993,0.0004980608329191592
4.6233844304177945,-8.380186993505942e-05
4.6272918545235955,-0.0006057370629326173
4.6311992786293965,-0.0010632831492845903
4.6351067027351975,-0.001455162308234699
4.639014126840999,-0.001783280495059303
4.6429215509468,-0.0020527274410674077
4.646828975052601,-0.0022716656285084983
4.650736399158402,-0.0024457205121048717
4.654643823264203,-0.0025803194943199133
4.658551247370004,-0.002682064745635388
4.662458671475805,-0.002756909757123308
4.666366095581606,-0.0028101593404459284
4.670273519687406,-0.002846469627855744
4.674180943793207,-0.002869848072195517
4.678088367899008,-0.0028836534468982293
4.681995792004809,-0.002890595845987117
4.68590321611061,-0.0028927366840756632
4.689810640216411,-0.0028914886963675953
4.693718064322212,-0.0028877588043154786
4.697625488428013,-0.002882871941385548
4.701532912533814,-0.002877337004815634
4.705440336639615,-0.0028714445806958975
4.709347760745416,-0.002865450948970682
4.713255184851217,-0.002859578083438513
4.717162608957018,-0.0028540136517520988
4.721070033062819,-0.00284891101541833
4.72497745716862,-0.0028443892297982777
4.728884881274421,-0.0028405330441071976
4.732792305380222,-0.0028373929014145266
4.736699729486023,-0.0028349849386438827
4.740607153591824,-0.0028332909865730685
4.744514577697625,-0.002832258569834066
4.748422001803426,-0.0028318009069130423
4.7523294259092275,-0.0028317969101503446
4.7562368500150285,-0.0028320911857405025
4.7601442741208295,-0.002832494033732229
4.7640516982266305,-0.002832822415542065
4.767959122332432,-0.002833133565813695
4.771866546438233,-0.0028331501539796797
4.775773970544034,-0.00283254061720055
4.779681394649835,-0.002831007108907607
4.783588818755636,-0.0028282854988029215
4.787496242861437,-0.002824145372859336
4.791403666967238,-0.0028183900333204615
4.795311091073039,-0.00281085649870068
4.79921851517884,-0.002801415503785144
4.803125939284641,-0.002789971499629775
4.807033363390442,-0.0027764626535612654
4.810940787496243,-0.002760860849177078
4.814848211602044,-0.002743171686345445
4.818755635707845,-0.0027234344812053692
4.822663059813646,-0.0027017222661666236
4.826570483919447,-0.0026781417899097515
4.830477908025248,-0.0026528335173860657
4.834385332131049,-0.0026259716298176494
4.83829275623685,-0.002597764024697357
4.842200180342651,-0.002568452315788811
4.846107604448452,-0.0025382409947630647
4.850015028554253,-0.002507403286547791
4.853922452660054,-0.002476490666723255
4.857829876765855,-0.002446019047333886
4.861737300871656,-0.0024164575907269616
4.865644724977457,-0.002388228709552607
4.869552149083258,-0.0023617080667637943
4.873459573189059,-0.0023372245756163442
4.87736699729486,-0.0023150603996689254
4.881274421400661,-0.0022954509527830526
4.885181845506462,-0.00227858489912309
4.889089269612263,-0.002264604153156248
4.8929966937180644,-0.0022536038796525854
4.8969041178238655,-0.0022456324936850087
4.9008115419296665,-0.0022406916606292713
4.9047189660354675,-0.0022387362961639747
4.908626390141269,-0.0022396745662705687
4.91253381424707,-0.0022433678872333497
4.916441238352871,-0.0022496309256394625
4.920348662458672,-0.002258231598378899
4.924256086564473,-0.0022782003455264405
4.928163510670274,-0.0023041486779175105
4.932070934776075,-0.0023233665682484517
4.935978358881876,-0.0023424283515762114
4.939885782987677,-0.0023872444591991056
4.943793207093478,-0.0025030614186568167
4.947700631199279,-0.0027544618537303964
4.95160805530508,-0.0032253644844422637
4.955515479410881,-0.0040138811986121445
4.959422903516682,-0.005077814183749372
4.963330327622483,-0.0061395687019778315
4.967237751728284,-0.0067949360207770985
4.971145175834085,-0.006519855854062816
4.975052599939886,-0.004719612683231188
4.978960024045687,-0.0009517225293478229
4.982867448151488,0.004962982646782796
4.986774872257289,0.012463977503367502
4.99068229636309,0.020208425014386813
4.994589720468891,0.026105145216537777
4.998497144574692,0.02823508438475951
5.002404568680493,0.025957437743573935
5.006311992786294,0.019804688452800014
5.010219416892095,0.011470090309905114
5.014126840997896,0.0033946862589714277
5.018034265103697,-0.003115580719597175
5.021941689209498,-0.007427824129775756
5.025849113315299,-0.009412065125855167
5.0297565374211,-0.009447051388876635
5.033663961526901,-0.008211755788264616
5.0375713856327025,-0.006457586587524136
5.0414788097385035,-0.0047759544030062375
5.0453862338443045,-0.003497338826604495
5.0492936579501055,-0.0026912884257549972
5.053201082055907,-0.0022033453253733635
5.057108506161708,-0.0019011924241852632
5.061015930267509,-0.0016931036228256067
5.06492335437331,-0.0015098423052708888
5.068830778479111,-0.0013063046836073006
5.072738202584912,-0.0010615197980307237
5.076645626690713,-0.000778572508580132
5.080553050796514,-0.0004614677821339094
5.084460474902315,-0.00010144680123381599
5.088367899008116,0.00030389942645184785
5.092275323113917,0.0007555819821864977
5.096182747219718,0.0012532140361652664
5.100090171325519,0.0017950108475150023
5.10399759543132,0.0023777897642942715
5.107905019537121,0.002996978279050181
5.111812443642922,0.003652263442971018
5.115719867748723,0.00433494035546586
5.119627291854524,0.005028853448115412
5.123534715960325,0.005718747276403749
5.127442140066126,0.0063902665197183165
5.131349564171927,0.00702995598134993
5.135256988277728,0.007625260588492772
5.139164412383529,0.008164525392244399
5.14307183648933,0.008636995567605731
5.146979260595131,0.009032816413481064
5.150886684700932,0.00934303335267806
5.154794108806733,0.00955959193190775
5.158701532912534,0.009675337821784539
5.162608957018335,0.009684016816826194
5.166516381124136,0.009579941555909617
5.170423805229937,0.009355268913929455
5.174331229335738,0.009020362607926958
5.178238653441539,0.00859072354264831
5.1821460775473405,0.008081188889898783
5.1860535016531415,0.00750593208854275
5.1899609257589425,0.006878462844503673
5.1938683498647435,0.006211627130764109
5.197775773970545,0.005517607187365715
5.201683198076346,0.004807921521409232
5.205590622182147,0.004093424907054509
5.209498046287948,0.0033843083855204766
5.213405470393749,0.002690099265085166
5.21731289449955,0.0020196611210857056
5.221220318605351,0.0013811937959183115
5.225127742711152,0.0007822333990382957
5.229035166816953,0.000229652306960074
5.232942590922754,-0.0002703408367428616
5.236850015028555,-0.0007136195307804512
5.240757439134356,-0.0011027579312715865
5.244664863240157,-0.0014418584953709477
5.248572287345958,-0.001734896823294292
5.252479711451759,-0.0019857271698230693
5.25638713555756,-0.002198082444304422
5.260294559663361,-0.002375574210651182
5.264201983769162,-0.0025216926873418764
5.268109407874963,-0.002639806747420722
5.272016831980764,-0.0027331639184976298
5.275924256086565,-0.0028048903827482038
5.279831680192366,-0.0028579909769137347
5.283739104298167,-0.00289534919230121
5.287646528403968,-0.0029197271747833107
5.291553952509769,-0.0029337657247984067
5.29546137661557,-0.0029399842973505575
5.299368800721371,-0.002940781002009523
5.303276224827172,-0.0029382678231143584
5.307183648932973,-0.0029330635874134283
5.311091073038774,-0.002925602789945183
5.314998497144575,-0.0029163647418425065
5.318905921250376,-0.002905786240557337
5.3228133453561775,-0.002894261569860668
5.3267207694619785,-0.002882142499842548
5.3306281935677795,-0.002869738286912078
5.3345356176735805,-0.0028573156737974163
5.338443041779382,-0.0028450988895457737
5.342350465885183,-0.002833269649523418
5.346257889990984,-0.002821967155415669
5.350165314096785,-0.0028112880952269026
5.354072738202586,-0.0028012866432805495
5.357980162308387,-0.0027919744602190946
5.361887586414188,-0.002783320693004078
5.365795010519989,-0.0027752519749160934
5.36970243462579,-0.0027676524255547895
5.373609858731591,-0.002760477867874326
5.377517282837392,-0.0027539157926458127
5.381424706943193,-0.0027480244466713917
5.385332131048994,-0.0027428407689122428
5.389239555154795,-0.0027383860299782085
5.393146979260596,-0.002734665832127797
5.397054403366397,-0.0027316701092681794
5.400961827472198,-0.002729373126955191
5.404869251577999,-0.002727733482393332
5.4087766756838,-0.0027266941044357647
5.412684099789601,-0.0027261822535843178
5.416591523895402,-0.002726109521989482
5.420498948001203,-0.0027263718334504137
5.424406372107004,-0.0027268494434149314
5.428313796212805,-0.00272740693897952
5.432221220318606,-0.002727893238889326
5.436128644424407,-0.002728141593538162
5.440036068530208,-0.0027279695849685036
5.443943492636009,-0.00272717912687149
5.44785091674181,-0.002725556464586925
5.451758340847611,-0.002722872175103277
5.455665764953412,-0.002718881167057677
5.459573189059213,-0.0027133226807359214
5.463480613165014,-0.00270592028807247
5.4673880372708155,-0.0026963583638864334
5.4712954613766165,-0.0026844376872025358
5.4752028854824175,-0.002670228754360837
5.4791103095882185,-0.002653830611276467
5.48301773369402,-0.002635359313463533
5.486925157799821,-0.002614947926035117
5.490832581905622,-0.002592746523703278
5.494740006011423,-0.0025689221907790522
5.498647430117224,-0.0025436590211724507
5.502554854223025,-0.002517158118392461
5.506462278328826,-0.002489637595547047
5.510369702434627,-0.0024613325753431487
5.514277126540428,-0.002432495190086683
5.518184550646229,-0.002403394581682543
5.52209197475203,-0.002374316901634596
5.525999398857831,-0.0023455653110456883
5.529906822963632,-0.002317459980617641
5.533814247069433,-0.002290338090651251
5.537721671175234,-0.002264553831046293
5.541629095281035,-0.002240478401301516
5.545536519386836,-0.0022185000105146473
5.549443943492637,-0.002199023877382388
5.553351367598438,-0.0021824722302004177
5.557258791704239,-0.002169284306863391
5.56116621581004,-0.002159821163015655
5.565073639915841,-0.0021537158472466683
5.568981064021642,-0.002150433160981225
5.572888488127443,-0.002149674406615178
5.576795912233244,-0.002151378950889758
5.580703336339045,-0.0021557242248915745
5.584610760444846,-0.002163125724052617
5.588518184550647,-0.0021742331470561917
5.592425608656448,-0.0021862955560754374
5.596333032762249,-0.002208948079158392
5.60024045686805,-0.0022664512143046683
5.604147880973851,-0.0023906928563345894
5.608055305079652,-0.0026211882968891903
5.6119627291854535,-0.003005080224430218
5.6158701532912545,-0.0035971387242401307
5.6197775773970555,-0.004459575045653314
5.6236850015028566,-0.005568756083863246
5.627592425608658,-0.006653961247351476
5.631499849714459,-0.007377205797334214
5.63540727382026,-0.007368364748927719
5.639314697926061,-0.006225172871148302
5.643222122031862,-0.0035252432862686142
5.647129546137663,0.000977094207543965
5.651036970243464,0.007221575951916029
5.654944394349265,0.01470858232423139
5.658851818455066,0.022471277545651046
5.662759242560867,0.029075609681113168
5.666666666666668,0.032662435632066174
5.670574090772467,0.032327295657439914
5.674481514878268,0.028489510546159343
5.678388938984069,0.021928460711740476
5.68229636308987,0.013753381183691033
5.686203787195671,0.005403361607509594
5.690111211301472,-0.00153011501086045
5.694018635407273,-0.006548475686765861
5.697926059513074,-0.00959647302084272
5.701833483618875,-0.010790863698805603
5.705740907724676,-0.010450641742611299
5.709648331830477,-0.009097038510458802
5.713555755936278,-0.007363570781524917
5.717463180042079,-0.005653487111596138
5.7213706041478805,-0.004212107029723762
5.7252780282536815,-0.0031625390325907667
5.7291854523594825,-0.002505524862975294
5.7330928764652835,-0.0021194395097506487
5.737000300571085,-0.001844662040522679
5.740907724676886,-0.0016346465968884135
5.744815148782687,-0.0014480931560529667
5.748722572888488,-0.001254720340512879
5.752629996994289,-0.001035289481843538
5.75653742110009,-0.0007816046206991765
5.760444845205891,-0.0004960126003332806
5.764352269311692,-0.0001772280906746919
5.768259693417493,0.00017900638290429215
5.772167117523294,0.0005744744444136452
5.776074541629095,0.0010100517656479217
5.779981965734896,0.0014857060661862573
5.783889389840697,0.0020004971133923666
5.787796813946498,0.0025525767224145483
5.791704238052299,0.003139188756185679
5.7956116621581,0.0037567250735495022
5.799519086263901,0.0044063474398457585
5.803426510369702,0.005081485756720527
5.807333934475503,0.005769898871895256
5.811241358581304,0.006459944673944523
5.815148782687105,0.007140580092296031
5.819056206792906,0.007801361097230612
5.822963630898707,0.008432442699882223
5.826871055004508,0.009024578952237952
5.830778479110309,0.00956912294713801
5.83468590321611,0.010058026818275737
5.838593327321911,0.010483841740197602
5.842500751427712,0.0108397179283032
5.846408175533513,0.01111940463884525
5.850315599639314,0.011317250168929607
5.854223023745115,0.011428201856515243
5.858130447850916,0.011447806080414265
5.862037871956717,0.0113722082602919
5.8659452960625185,0.011195960798629742
5.8698527201683195,0.010917915518820147
5.8737601442741205,0.010549680028637846
5.8776675683799215,0.010102907406615737
5.881574992485723,0.009588785281902453
5.885482416591524,0.009018035834262358
5.889389840697325,0.008400915794075548
5.893297264803126,0.007747216442337857
5.897204688908927,0.007066263610660842
5.901112113014728,0.006366917681271801
5.905019537120529,0.005657573587013762
5.90892696122633,0.0049461608113454845
5.912834385332131,0.0042401433883414615
5.916741809437932,0.0035465199026919183
5.920649233543733,0.002871823489702812
5.924556657649534,0.0022221218352958365
5.928464081755335,0.0016030171760084127
5.932371505861136,0.0010196462989936952
5.936278929966937,0.00047668054202057615
5.940186354072738,-2.1674206526323125e-05
5.944093778178539,-0.0004719817554373326
5.94800120228434,-0.0008749725933849688
5.951908626390141,-0.0012338147793595584
5.955816050495942,-0.001551606481114034
5.959723474601743,-0.0018313524371679991
5.963630898707544,-0.0020759639568077312
5.967538322813345,-0.0022882589200861796
5.971445746919146,-0.0024709617778229664
5.975353171024947,-0.002626703551604386
5.979260595130748,-0.002758021833783405
5.983168019236549,-0.0028673607874796646
5.98707544334235,-0.002957071146579475
5.990982867448151,-0.0030294102157358235
5.994890291553952,-0.003086541870368366
5.998797715659753,-0.003130536556663432
6.002705139765554,-0.0031633712915740252
6.0066125638713554,-0.003186929662819821
6.0105199879771565,-0.0032030018288871625
6.0144274120829575,-0.0032132845190290756
6.0183348361887585,-0.0032193810332652524
6.02224226029456,-0.003222725348632487
6.026149684400361,-0.0032237251547151146
6.030057108506162,-0.00322273066033789
6.033964532611963,-0.0032201786398756396
6.037871956717764,-0.003216465747842093
6.041779380823565,-0.003211948518889879
6.045686804929366,-0.0032069433678105306
6.049594229035167,-0.003201726589534481
6.053501653140968,-0.003196534359131065
6.057409077246769,-0.003191562731808521
6.06131650135257,-0.0031869676429139874
6.065223925458371,-0.003182864907933505
6.069131349564172,-0.0031793302224920163
6.073038773669973,-0.003176399162353366
6.076946197775774,-0.0031740671834202994
6.080853621881575,-0.003172289621734465
6.084761045987376,-0.003170981693476413
6.088668470093177,-0.0031700184949655934
6.092575894198978,-0.00316923500266036
6.096483318304779,-0.0031684260731579678
6.10039074241058,-0.0031673464431945736
6.104298166516381,-0.0031659623269185097
6.108205590622182,-0.0031641891130638603
6.112113014727983,-0.003161695136587466
6.116020438833784,-0.0031581842098203114
6.119927862939585,-0.0031533956272093485
6.123835287045386,-0.0031471041653174992
6.127742711151187,-0.003139120082823653
6.131650135256988,-0.0031292891205226686
6.135557559362789,-0.003117492501325373
6.13946498346859,-0.0031036469302585623
6.143372407574391,-0.003087704594465001
6.147279831680192,-0.003069653163203421
6.1511872557859935,-0.0030495157878485256
6.1550946798917945,-0.0030273511018909837
6.1590021039975955,-0.0030032532209374346
6.1629095281033965,-0.002977351742710486
6.166816952209198,-0.0029498117470487134
6.170724376314999,-0.002920833795906662
6.1746318004208,-0.0028906539333548443
6.178539224526601,-0.002859543685579743
6.182446648632402,-0.0028278100608838085
6.186354072738203,-0.0027957955496854593
6.190261496844004,-0.002763878124519084
6.194168920949805,-0.0027324712400350376
6.198076345055606,-0.0027020238329996463
6.201983769161407,-0.002673020322295203
6.205891193267208,-0.00264598060891997
6.209798617373009,-0.0026214600759881784
6.21370604147881,-0.0026005254294023637
6.217613465584611,-0.0025838176907449677
6.221520889690412,-0.0025709785539024485
6.225428313796213,-0.0025616546057046427
6.229335737902014,-0.0025555014763577054
6.233243162007815,-0.0025521838394441114
6.237150586113616,-0.0025513754119226534
6.241058010219417,-0.0025527589541284434
6.244965434325218,-0.002556026269772912
6.248872858431019,-0.0025608782059438084
6.25278028253682,-0.002567024653105201
6.256687706642621,-0.002574184545097477
6.260595130748422,-0.002582085859137341
6.264502554854223,-0.002590465615817819
6.268409978960024,-0.0025990698791082535
6.272317403065825,-0.002607653756354307
6.276224827171626,-0.00261598139827796
6.280132251277427,-0.0026238259989775125
6.284039675383228,-0.002630969795927583
6.287947099489029,-0.002637204069979108
6.29185452359483,-0.0026423291453593453
6.2957619477006315,-0.0026461543896718685
6.2996693718064325,-0.002648498213896571
6.3035767959122335,-0.0026491880723896657
6.3074842200180345,-0.002648060462883684
6.311391644123836,-0.002644960926487475
6.315299068229637,-0.0026397440476862086
6.319206492335438,-0.002632273454341372
6.323113916441239,-0.0026224218176907716
6.32702134054704,-0.0026100708523485315
6.330928764652841,-0.0025951113163050973
6.334836188758642,-0.002577443010927231
6.338743612864443,-0.0025569747809580136
6.342651036970244,-0.002540484034506832
6.346558461076045,-0.002529174604875105
6.350465885181846,-0.0025110283551056547
6.354373309287647,-0.002486814918591544
6.358280733393448,-0.002470546372463277
6.362188157499249,-0.0024894772375887975
6.36609558160505,-0.002584104478573491
6.370003005710851,-0.002808167503760184
6.373910429816652,-0.0032286481652291452
6.377817853922453,-0.003920374308324119
6.381725278028254,-0.004868826615028432
6.385632702134055,-0.005932512442561271
6.389540126239856,-0.006874730762646236
6.393447550345657,-0.007364010462908429
6.397354974451458,-0.006974110346874441
6.401262398557259,-0.005266856750096808
6.40516982266306,-0.0019049265269757308
6.409077246768861,0.0033440271653697425
6.412984670874662,0.010239141455918109
6.416892094980463,0.018051195794204774
6.420799519086264,0.025562611950322053
6.424706943192065,0.031092729945739715
6.428614367297866,0.03325756825852084
6.432521791403667,0.031640856655382125
6.4364292155094684,0.026519922520583925
6.4403366396152695,0.01885033377747094
6.4442440637210705,0.01026589888847219
6.4481514878268715,0.0025065210968518497
6.452058911932673,-0.0037246379031339837
6.455966336038474,-0.008035655264478577
6.459873760144275,-0.01033847868170647
6.463781184250076,-0.010849049843061311
6.467688608355877,-0.010060234799903586
6.471596032461678,-0.00851594172034069
6.475503456567479,-0.0067439808784001765
6.47941088067328,-0.005125252556975506
6.483318304779081,-0.00387543761779392
6.487225728884882,-0.0030449975014164576
6.491133152990683,-0.002523541712155913
6.495040577096484,-0.002181980002963434
6.498948001202285,-0.001950978212369485
6.502855425308086,-0.0017707731539269253
6.506762849413887,-0.0015969863403423575
6.510670273519688,-0.0014006239834761225
6.514577697625489,-0.0011680769943423067
6.51848512173129,-0.000901120983108734
6.522392545837091,-0.000604926374011958
6.526299969942892,-0.00027157051200787116
6.530207394048693,0.00010115293434185234
6.534114818154494,0.0005145324685944344
6.538022242260295,0.0009689856493548673
6.541929666366096,0.0014640590902759156
6.545837090471897,0.001998428460058115
6.549744514577698,0.002569898482449772
6.553651938683499,0.003175402936246967
6.5575593627893,0.0038085060197507997
6.561466786895101,0.004459616265649292
6.565374211000902,0.005123790575832744
6.569281635106703,0.005796147282563804
6.573189059212504,0.006471729502370544
6.577096483318305,0.007145505136046459
6.5810039074241065,0.007812366868650464
6.5849113315299075,0.008467132169506893
6.5888187556357085,0.00910454329220551
6.5927261797415095,0.009719267274601491
6.596633603847311,0.010305895938815438
6.600541027953112,0.010858945891233374
6.604448452058913,0.011372858522506746
6.608355876164714,0.011842000007552422
6.612263300270515,0.012260661305552686
6.616170724376316,0.012623058159955252
6.620078148482117,0.012923331098473248
6.623985572587918,0.013155746163703593
6.627892996693719,0.013317947005142763
6.63180042079952,0.013409077233980372
6.635707844905321,0.013428545329315087
6.639615269011122,0.013376352109020601
6.643522693116923,0.013253090729745641
6.647430117222724,0.01305994668691396
6.651337541328525,0.012798697814724345
6.655244965434326,0.012471714286150607
6.659152389540127,0.012081958612941592
6.663059813645928,0.011632985645621171
6.666967237751729,0.01112894257348825
6.67087466185753,0.010574568924616761
6.674782085963331,0.009975196565855665
6.678689510069132,0.009336749702828955
6.682596934174933,0.008665744879935655
6.686504358280734,0.007969290980349816
6.690411782386535,0.007255088086945879
6.694319206492336,0.006528803582782899
6.698226630598137,0.005795021112289576
6.702134054703938,0.005059633908863879
6.706041478809739,0.004328087929145012
6.70994890291554,0.0036053818530134164
6.713856327021341,0.002896067083590771
6.717763751127142,0.0022042477472399916
6.721671175232943,0.0015335806935652284
6.7255785993387445,0.0008872754954118729
6.7294860234445455,0.00026809444886654633
6.7333934475503465,-0.0003216474267428871
6.7373008716561475,-0.0008800823888473301
6.741208295761949,-0.001405789971636446
6.74511571986775,-0.0018977969860586655
6.749023143973551,-0.002355577519821175
6.752930568079352,-0.0027790529373899336
6.756837992185153,-0.003168591879989656
6.760745416290954,-0.0035250102656038274
6.764652840396755,-0.003849571288974689
6.768560264502556,-0.00414398542160325
6.772467688608357,-0.0044103862684394795
6.776375112714158,-0.004649158618303771
6.780282536819959,-0.004860915623713198
6.78418996092576,-0.005047367615139177
6.788097385031561,-0.005210177652834468
6.792004809137362,-0.005350961526833165
6.795912233243163,-0.005471287756950707
6.799819657348964,-0.005572677592783874
6.803727081454765,-0.005656605013710781
6.807634505560566,-0.005724496728890888
6.811541929666367,-0.005777732177264993
6.815449353772168,-0.005817643527555236
6.819356777877969,-0.005845515678265098
6.82326420198377,-0.0058625862576793955
6.827171626089571,-0.005870045623864288
6.831079050195372,-0.00586903686466728
6.834986474301173,-0.005860655797717208
6.838893898406974,-0.005845950970424254
6.842801322512775,-0.005825923659979938
6.846708746618576,-0.005801527873357122
6.850616170724377,-0.005773670347310009
6.854523594830178,-0.005743210548374139
6.858431018935979,-0.005710960672866394
6.86233844304178,-0.005677685646884997
6.8662458671475814,-0.005644103126309511
6.8701532912533825,-0.005611635114788673
6.8740607153591835,-0.005581291049375434
6.8779681394649845,-0.005553109008486306
6.881875563570786,-0.005527110689108885
6.885782987676587,-0.00550330141233311
6.889690411782388,-0.005481670123351254
6.893597835888189,-0.005462189391457933
6.89750525999399,-0.005444815410050101
6.901412684099791,-0.005429487996627051
6.905320108205592,-0.005416130592790416
6.909227532311393,-0.005404650264244167
6.913134956417194,-0.005394937700794615
6.917042380522995,-0.00538686721635041
6.920949804628796,-0.005380296748922542
6.924857228734597,-0.005375067860624337
6.928764652840398,-0.0053710057376714655
6.932672076946199,-0.005367919190381932
6.936579501052,-0.005365600653176083
6.940486925157801,-0.005363826184576604
6.944394349263602,-0.005362355467208519
6.948301773369403,-0.005360931807799192
6.952209197475204,-0.005359282137178325
6.956116621581005,-0.00535711701027796
6.960024045686806,-0.005354130606132477
6.963931469792607,-0.005350000727878597
6.967838893898408,-0.00534438880275538
6.971746318004209,-0.005336939882104224
6.97565374211001,-0.005327282641368866
6.979561166215811,-0.005315029380095384
6.983468590321612,-0.005299776021932193
6.987376014427413,-0.00528110211463005
6.991283438533214,-0.005258570830042048
6.995190862639015,-0.0052326109383330575
6.999098286744816,-0.005204298679460995
7.003005710850616,-0.00517392118942683
7.006913134956417,-0.005141768741971558
7.010820559062218,-0.005108136804980049
7.014727983168019,-0.005073326040480997
7.01863540727382,-0.00503764230464693
7.022542831379621,-0.005001396647794213
7.026450255485422,-0.004964905314383043
7.030357679591223,-0.004928489743017456
7.034265103697024,-0.004892476566445322
7.038172527802825,-0.004857192246110311
7.042079951908626,-0.004822873194733829
7.045987376014427,-0.0047897183271152525
7.049894800120228,-0.004757904394975087
7.053802224226029,-0.004727572712019581
7.05770964833183,-0.004698829153940723
7.061617072437631,-0.004671744158416241
7.065524496543432,-0.004646352725109607
7.069431920649233,-0.004622654415670033
7.073339344755034,-0.004600613353732469
7.077246768860835,-0.004580158224917608
7.081154192966636,-0.004561188009410707
7.085061617072437,-0.004543618251496846
7.088969041178238,-0.004527306634515189
7.092876465284039,-0.004512102105253997
7.09678388938984,-0.004497861201514142
7.100691313495641,-0.004484448052109108
7.104598737601442,-0.004471734376864992
7.108506161707243,-0.004459599486620503
7.112413585813044,-0.004447930283226963
7.116321009918845,-0.004436621259548304
7.1202284340246464,-0.004425574499461071
7.1241358581304475,-0.004414699677854423
7.1280432822362485,-0.004406475027580868
7.1319507063420495,-0.004402988982555999
7.1358581304478506,-0.004389113540501293
7.139765554553652,-0.004366179246144509
7.143672978659453,-0.004355298044120067
7.147580402765254,-0.004397363278969049
7.151487826871055,-0.004548067170449537
7.155395250976856,-0.004968653356565562
7.159302675082657,-0.005849743399180899
7.163210099188458,-0.00693906722384373
7.167117523294259,-0.0075163470147157655
7.17102494740006,-0.006539725542760762
7.174932371505861,-0.002726003728932372
7.178839795611662,0.003878100320926215
7.182747219717463,0.011542400330818036
7.186654643823264,0.014125037329959594
7.190562067929065,0.01124404974112401
7.194469492034866,0.005656623572445867
7.198376916140667,-0.00048763065047067317
7.202284340246468,-0.005646677884551898
7.206191764352269,-0.008886058569254554
7.21009918845807,-0.009878888626565866
7.214006612563871,-0.008907260689000175
7.217914036669672,-0.007459853367173252
7.221821460775473,-0.00637435359015694
7.225728884881274,-0.005597109184712517
7.229636308987075,-0.005067461969408467
7.233543733092876,-0.004717747754620487
7.237451157198677,-0.004473296342531485
7.241358581304478,-0.004252431527131576
7.245266005410279,-0.003968124604495132
7.24917342951608,-0.0036050121929073727
7.253080853621881,-0.0031759243797402116
7.256988277727682,-0.0026784229041608696
7.260895701833483,-0.002114626929687089
7.2648031259392845,-0.0014912130441871309
7.2687105500450855,-0.0008194152598797765
7.2726179741508865,-0.0001150250133343262
7.2765253982566875,0.0006016520263157526
7.280432822362489,0.0013131258880752295
7.28434024646829,0.001988992440897869
7.288247670574091,0.0025943194674194906
7.292155094679892,0.0031004239620979783
7.296062518785693,0.0034848721312132815
7.299969942891494,0.003731479392867415
7.303877366997295,0.0038303103769844592
7.307784791103096,0.0037776789253105626
7.311692215208897,0.0035761480914139328
7.315599639314698,0.0032345301406848494
7.319507063420499,0.0027646667903239264
7.3234144875263,0.0021900016790191955
7.327321911632101,0.0015434711822655328
7.331229335737902,0.0008547760416870273
7.335136759843703,0.00015028414090114068
7.339044183949504,-0.0005469694944812923
7.342951608055305,-0.001217282696856063
7.346859032161106,-0.0018442861566255937
7.350766456266907,-0.00241494342219893
7.354673880372708,-0.0029195508999917464
7.358581304478509,-0.003349725030526823
7.36248872858431,-0.0037062442479732145
7.366396152690111,-0.0039978447963093956
7.370303576795912,-0.004232759045550747
7.374211000901713,-0.004418669063465405
7.378118425007514,-0.0045627066155742545
7.382025849113315,-0.0046714531651509345
7.385933273219116,-0.004750939873221838
7.389840697324917,-0.004806647598566107
7.393748121430718,-0.004843506897715637
7.397655545536519,-0.00486589802495508
7.40156296964232,-0.004877650932321831
7.405470393748121,-0.0048820452696060465
7.4093778178539225,-0.0048818103843506315
7.4132852419597235,-0.004879125321851242
7.4171926660655245,-0.004875391422824347
7.4211000901713255,-0.004870821407583879
7.425007514277127,-0.004865442020473915
7.428914938382928,-0.004859263336133203
7.432822362488729,-0.00485227729797974
7.43672978659453,-0.004844457718210784
7.440637210700331,-0.004835760277802845
7.444544634806132,-0.004826122526511688
7.448452058911933,-0.004815463882872334
7.452359483017734,-0.004803685634199059
7.456266907123535,-0.004790670936585392
7.460174331229336,-0.00477628481490412
7.464081755335137,-0.004760374162807284
7.467989179440938,-0.004742767742726177
7.471896603546739,-0.004723276185871351
7.47580402765254,-0.004701691992232611
7.479711451758341,-0.004677790785195175
7.483618875864142,-0.004651479875849164
7.487526299969943,-0.004622944309616957
7.491433724075744,-0.004592409809521611
7.495341148181545,-0.004560113201993655
7.499248572287346,-0.004526302416871096
7.503155996393147,-0.004491236487399416
7.507063420498948,-0.004455185550231574
7.510970844604749,-0.004418430845428005
7.51487826871055,-0.004381264716456616
7.518785692816351,-0.004343990610192796
7.522693116922152,-0.004306923076919404
7.526600541027953,-0.0042703877703267785
7.530507965133754,-0.004234721447512732
7.534415389239555,-0.004200271968982554
7.538322813345356,-0.004167398298649008
7.542230237451157,-0.004136470503832337
7.546137661556958,-0.004107869755260255
7.5500450856627594,-0.004081988327067954
7.5539525097685605,-0.004059213320756588
7.5578599338743615,-0.004039568301698944
7.5617673579801625,-0.004023053209384255
7.565674782085964,-0.004009701090140558
7.569582206191765,-0.003999484100226076
7.573489630297566,-0.003992313505829214
7.577397054403367,-0.0039880396830685675
7.581304478509168,-0.003986452117992909
7.585211902614969,-0.003987279406581203
7.58911932672077,-0.004003287843536369
7.593026750826571,-0.004035232717013748
7.596934174932372,-0.004048918396528978
7.600841599038173,-0.004031433035206561
7.604749023143974,-0.003992493661648814
7.608656447249775,-0.003964446179935866
7.612563871355576,-0.004002265369625663
7.616471295461377,-0.004183554885753964
7.620378719567178,-0.004613268069831479
7.624286143672979,-0.005444299234928899
7.62819356777878,-0.0065096884343581055
7.632100991884581,-0.007178465313197621
7.636008415990382,-0.006385390176964349
7.639915840096183,-0.0030808948398220043
7.643823264201984,0.0031489725696307548
7.647730688307785,0.010930382333485585
7.651638112413586,0.016857062533859785
7.655545536519387,0.017059208128817536
7.659452960625188,0.011701902104589407
7.663360384730989,0.003421357812431483
7.66726780883679,-0.003756644467577847
7.671175232942591,-0.007946279256366644
7.675082657048392,-0.009036833380762672
7.678990081154193,-0.007983860738904877
7.682897505259994,-0.006237079276324554
7.686804929365795,-0.0047705967771054965
7.690712353471596,-0.003957657088963943
7.6946197775773975,-0.0035841625579385956
7.6985272016831985,-0.0033433910725831186
7.7024346257889995,-0.0031336037031590627
7.7063420498948005,-0.002888375931024091
7.710249474000602,-0.0025832027523047356
7.714156898106403,-0.0022227385010321057
7.718064322212204,-0.0017991357368907996
7.721971746318005,-0.001309444200054822
7.725879170423806,-0.00075532933748452
7.729786594529607,-0.0001428905002575872
7.733694018635408,0.0005173390564309323
7.737601442741209,0.0012103921732686492
7.74150886684701,0.0019219541389915865
7.745416290952811,0.0026273005000476742
7.749323715058612,0.003291877598430948
7.753231139164413,0.0038857364928601684
7.757138563270214,0.004383593500525995
7.761045987376015,0.004764830197090984
7.764953411481816,0.005013493416689592
7.768860835587617,0.005118295251928171
7.772768259693418,0.005072613053884975
7.776675683799219,0.004874291003247638
7.78058310790502,0.004519643516208538
7.784490532010821,0.004032862074800675
7.788397956116622,0.003447535030575438
7.792305380222423,0.0027942683865368402
7.796212804328224,0.0021006857971415257
7.800120228434025,0.0013914285682987606
7.804027652539826,0.0006881556573704395
7.807935076645627,9.543673171083858e-06
7.811842500751428,-0.0006287131240321625
7.815749924857229,-0.0012139028225195275
7.81965734896303,-0.0017362958591186067
7.823564773068831,-0.0021891450192043794
7.827472197174632,-0.002568354783840556
7.831379621280433,-0.002877021017783656
7.835287045386234,-0.0031243836583719517
7.8391944694920355,-0.0033191659134220322
7.8431018935978365,-0.0034693934035579183
7.8470093177036375,-0.0035823941622110606
7.8509167418094385,-0.0036647986356203397
7.85482416591524,-0.003722539682832068
7.858731590021041,-0.003760852575699987
7.862639014126842,-0.0037842749988852677
7.866546438232643,-0.0037966470498565145
7.870453862338444,-0.003801111238889759
7.874361286444245,-0.003800112489068466
7.878268710550046,-0.003795398136283527
7.882176134655847,-0.0037880179292332666
7.886083558761648,-0.0037783240294234407
7.889990982867449,-0.0037660877167886714
7.89389840697325,-0.0037522283458484664
7.897805831079051,-0.0037372140612870045
7.901713255184852,-0.003721141222525793
7.905620679290653,-0.0037041059752223465
7.909528103396454,-0.0036862042512701924
7.913435527502255,-0.003667531768798867
7.917342951608056,-0.003648184032173916
7.921250375713857,-0.0036282563319968964
7.925157799819658,-0.0036078437451053736
7.929065223925459,-0.003587041134572924
7.93297264803126,-0.003565943149709134
7.936880072137061,-0.0035446442260596007
7.940787496242862,-0.0035232385854059287
7.944694920348663,-0.003501820235765735
7.948602344454464,-0.0034804842635549047
7.952509768560265,-0.0034593333614890373
7.956417192666066,-0.003438458331239344
7.960324616771867,-0.0034179387012042302
7.964232040877668,-0.0033978441483841194
7.968139464983469,-0.003378234498381453
7.97204688908927,-0.0033591597254006896
7.975954313195071,-0.003340659952248307
7.9798617373008724,-0.003322765450332799
7.9837691614066735,-0.003305496639664679
7.9876765855124745,-0.0032888640888564776
7.9915840096182755,-0.003272868515122743
7.995491433724077,-0.0032575007842800424
7.999398857829878,-0.003242741867827391
8.003306281935679,-0.003228334243598551
8.00721370604148,-0.003214134447801699
8.01112113014728,-0.003200259079778752
8.015028554253082,-0.0031868132246378415
8.018935978358883,-0.0031738904532533137
8.022843402464684,-0.003161572822265729
8.026750826570485,-0.0031499308740818633
8.030658250676286,-0.003139023636874706
8.034565674782087,-0.003128898624583462
8.038473098887888,-0.00311959183691355
8.042380522993689,-0.003111127759336603
8.04628794709949,-0.0031035193630904708
8.050195371205291,-0.003096768105179215
8.054102795311092,-0.003090863928373113
8.058010219416893,-0.0030857852612086573
8.061917643522694,-0.0030814990179885544
8.065825067628495,-0.003077960598781725
8.069732491734296,-0.003075113889423305
8.073639915840097,-0.0030728912615146453
8.077547339945898,-0.00307121357242331
8.0814547640517,-0.0030699901652830788
8.0853621881575,-0.0030691188689939463
8.089269612263301,-0.0030684859982221206
8.093177036369102,-0.0030679663534000246
8.097084460474903,-0.0030674232207262967
8.100991884580704,-0.0030667083721657895
8.104899308686505,-0.0030656620654495696
8.108806732792306,-0.0030641130440749184
8.112714156898107,-0.0030618785373053327
8.116621581003908,-0.0030587642601705226
8.12052900510971,-0.003054564413466414
8.12443642921551,-0.003049061683755146
8.128343853321311,-0.003042027243365074
8.132251277427113,-0.003033220750390766
8.136158701532914,-0.003022390348693007
8.140066125638715,-0.0030092726678987943
8.143973549744516,-0.0029935928234013412
8.147880973850317,-0.0029753921916969867
8.151788397956118,-0.0029550291825572936
8.155695822061919,-0.0029325981846454064
8.15960324616772,-0.002908227274249033
8.16351067027352,-0.0028820797545055375
8.167418094379322,-0.002854354155401942
8.171325518485123,-0.0028252842337749256
8.175232942590924,-0.0027951389733108243
8.179140366696725,-0.002764222584545632
8.183047790802526,-0.0027328745048650002
8.186955214908327,-0.002701469398504237
8.190862639014128,-0.0026704171565483086
8.194770063119929,-0.0026401628969318375
8.19867748722573,-0.0026111869644391047
8.202584911331531,-0.0025840049307040477
8.206492335437332,-0.002559681097606892
8.210399759543133,-0.0025420588891078445
8.214307183648934,-0.0025304521875488093
8.218214607754735,-0.002530290089428674
8.222122031860536,-0.0025553536188227363
8.226029455966337,-0.0026277757273827054
8.229936880072138,-0.002778041294336701
8.23384430417794,-0.0030449871264892525
8.23775172828374,-0.0034758019582213006
8.241659152389541,-0.004126026232339552
8.245566576495342,-0.005030826551028589
8.249474000601143,-0.006105892530763369
8.253381424706944,-0.007195962072333256
8.257288848812745,-0.008095438111926798
8.261196272918546,-0.00854838862113173
8.265103697024347,-0.008248546606934973
8.269011121130148,-0.0068634622855429294
8.27291854523595,-0.004164969431365299
8.27682596934175,0.00010548210792517276
8.280733393447552,0.005952443816762394
8.284640817553353,0.01307817097487387
8.288548241659154,0.020882622657280695
8.292455665764955,0.02846346173429757
8.296363089870756,0.03465766149894302
8.300270513976557,0.0383646020675506
8.304177938082358,0.038914630525441925
8.308085362188159,0.036152479268248994
8.31199278629396,0.03043781068778785
8.31590021039976,0.0226452171720586
8.319807634505562,0.01413936697821411
8.323715058611363,0.0060533821683266265
8.327622482717164,-0.0009772068016775035
8.331529906822965,-0.006507942551950405
8.335437330928766,-0.010314433205998133
8.339344755034565,-0.012392352390680095
8.343252179140366,-0.012957439236211978
8.347159603246167,-0.012371640886017924
8.351067027351968,-0.011011852040999692
8.35497445145777,-0.009278249932077553
8.35888187556357,-0.007498748954934856
8.362789299669371,-0.0059145931579109474
8.366696723775172,-0.00470918046089267
8.370604147880973,-0.004061002117419523
8.374511571986774,-0.003751158761144686
8.378418996092575,-0.003531406801129764
8.382326420198376,-0.0032991556037609182
8.386233844304178,-0.003027142160724176
8.390141268409979,-0.0026974554692289036
8.39404869251578,-0.0022998623425911626
8.39795611662158,-0.001831807410233709
8.401863540727382,-0.0012934198304166912
8.405770964833183,-0.0006861789689064706
8.409678388938984,-2.811771865236139e-05
8.413585813044785,0.0006606339703387897
8.417493237150586,0.0013584827826812044
8.421400661256387,0.0020423720376101747
8.425308085362188,0.002687781688982065
8.429215509467989,0.003268728325274305
8.43312293357379,0.0037577651695853993
8.43703035767959,0.004125982079634917
8.440937781785392,0.004342816167052595
8.444845205891193,0.00438775315237216
8.448752629996994,0.004269456349126181
8.452660054102795,0.004002420478331628
8.456567478208596,0.0036034913091584444
8.460474902314397,0.003091865658929541
8.464382326420198,0.002489091393120801
8.468289750525999,0.0018190674253610738
8.4721971746318,0.001108043717432183
8.476104598737601,0.00038462127926891564
8.480012022843402,-0.0003202478310409653
8.483919446949203,-0.0009739388144832416
8.487826871055004,-0.0015606555746775156
8.491734295160805,-0.002078197667201252
8.495641719266606,-0.0025251425704710465
8.499549143372407,-0.0029019345472178736
8.503456567478208,-0.003210884644487091
8.50736399158401,-0.003456170693638437
8.51127141568981,-0.0036438373103460323
8.515178839795611,-0.0037817958945983747
8.519086263901412,-0.0038798246306983517
8.522993688007213,-0.003949371348272811
8.526901112113014,-0.003997289982557909
8.530808536218816,-0.004027338995152135
8.534715960324617,-0.004043532109994458
8.538623384430418,-0.00404933433102497
8.542530808536219,-0.00404766194218489
8.54643823264202,-0.004040882507416558
8.55034565674782,-0.004030814870663441
8.554253080853622,-0.004018729155870126
8.558160504959423,-0.004005346766982327
8.562067929065224,-0.003990840387946882
8.565975353171025,-0.003974837414985325
8.569882777276826,-0.003957438394738487
8.573790201382627,-0.003939144109730405
8.577697625488428,-0.003920042795768364
8.581605049594229,-0.0039002232579742504
8.58551247370003,-0.0038797748707845472
8.589419897805831,-0.0038587875779503337
8.593327321911632,-0.003837351892537287
8.597234746017433,-0.0038155588969256806
8.601142170123234,-0.0037935002428103864
8.605049594229035,-0.0037712681512008725
8.608957018334836,-0.003748955412421205
8.612864442440637,-0.003726655386110046
8.616771866546438,-0.0037044620012206563
8.62067929065224,-0.0036824697560208933
8.62458671475804,-0.0036607737180932107
8.628494138863841,-0.0036394695243346605
8.632401562969642,-0.0036186542744843027
8.636308987075443,-0.0035984135383917266
8.640216411181244,-0.003578762430356737
8.644123835287045,-0.0035597024519738478
8.648031259392846,-0.003541234987083115
8.651938683498647,-0.003523361301770137
8.655846107604448,-0.0035060825443660524
8.65975353171025,-0.003489399745447542
8.66366095581605,-0.0034733138178368286
8.667568379921851,-0.003457825556601676
8.671475804027653,-0.0034429356390553905
8.675383228133454,-0.0034286446247568186
8.679290652239255,-0.0034149529555103494
8.683198076345056,-0.003401860955365914
8.687105500450857,-0.003389368830618985
8.691012924556658,-0.003377476669810575
8.694920348662459,-0.00336618444372724
8.69882777276826,-0.0033554920054010774
8.70273519687406,-0.003345399090109726
8.706642620979862,-0.0033359366138748145
8.710550045085663,-0.0033271539116144326
8.714457469191464,-0.0033189788146367836
8.718364893297265,-0.003311443685210422
8.722272317403066,-0.003304701986389208
8.726179741508867,-0.003299028282012307
8.730087165614668,-0.003276040752034181
8.733994589720469,-0.003243575891829093
8.73790201382627,-0.0033348015645444135
8.741809437932071,-0.003648810687581045
8.745716862037872,-0.004240322160899034
8.749624286143673,-0.005119680867017569
8.753531710249474,-0.006227887325088306
8.757439134355275,-0.006377814156435031
8.761346558461076,-0.003987219454507971
8.765253982566877,0.0013320177940883198
8.769161406672678,0.008722022918990253
8.77306883077848,0.01557579496278577
8.77697625488428,0.017280928475473384
8.780883678990081,0.012538396018424582
8.784791103095882,0.004389309496946818
8.788698527201683,-0.0029594824967601237
8.792605951307484,-0.007183706716469014
8.796513375413285,-0.008096148380083273
8.800420799519086,-0.006957826923134308
8.804328223624887,-0.005296535803797015
8.808235647730688,-0.004011343302860753
8.81214307183649,-0.003337955790051163
8.81605049594229,-0.003012596828833916
8.819957920048092,-0.0028218525467812545
8.823865344153893,-0.002627022057037085
8.827772768259694,-0.0023583668555979794
8.831680192365495,-0.002015101152286651
8.835587616471296,-0.0016161796857346302
8.839495040577097,-0.0011458055461202833
8.843402464682898,-0.0006038393333700552
8.847309888788699,4.45797523834085e-06
8.8512173128945,0.0006684250250759251
8.8551247370003,0.0013720000841624534
8.859032161106102,0.002093801819201704
8.862939585211903,0.002807715479421751
8.866847009317704,0.0034864661564363514
8.870754433423505,0.004105360698740001
8.874661857529306,0.004642519028364843
8.878569281635107,0.005078874140880658
8.882476705740908,0.005398172105394875
8.886384129846709,0.005586972064552557
8.89029155395251,0.005634646234536415
8.894198978058311,0.005533516980457614
8.898106402164112,0.005286842833956177
8.902013826269913,0.004910102840616606
8.905921250375714,0.00442083951858773
8.909828674481515,0.0038380906713474912
8.913736098587316,0.0031823893877029464
8.917643522693117,0.0024757640417902658
8.921550946798918,0.001741738293074729
8.92545837090472,0.0010053310863507364
8.92936579501052,0.0002917057934262275
8.933273219116321,-0.00038326425485518375
8.937180643222122,-0.0010092900081385392
8.941088067327923,-0.0015784660341429087
8.944995491433724,-0.0020853188556358925
8.948902915539525,-0.0025268069504336215
8.952810339645326,-0.002902320751400756
8.956717763751127,-0.0032136826464504893
8.960625187856929,-0.003465146978544542
8.96453261196273,-0.003663400045693168
8.96844003606853,-0.003817560100955149
8.972347460174332,-0.003935997031589478
8.976254884280133,-0.004022496086913503
8.980162308385934,-0.004082372825990411
8.984069732491735,-0.004120437821492591
8.987977156597536,-0.004140960889135559
8.991884580703337,-0.004147671087677966
8.995792004809138,-0.004143756718921591
8.999699428914939,-0.004131865327711348
9.00360685302074,-0.00411410370193528
9.00751427712654,-0.004092037872524562
9.011421701232342,-0.004066693113453501
9.015329125338143,-0.004038554558528161
9.019236549443944,-0.004008423520462098
9.023143973549745,-0.0039772877828622225
9.027051397655546,-0.00394559401170093
9.030958821761347,-0.003913749164647734
9.034866245867148,-0.0038821204910692714
9.038773669972949,-0.0038510355320293004
9.04268109407875,-0.0038207821202887004
9.046588518184551,-0.0037916083803054734
9.050495942290352,-0.003763722728234742
9.054403366396153,-0.0037372938719287523
9.058310790501954,-0.0037124508109368706
9.062218214607755,-0.0036892828365055847
9.066125638713556,-0.003667839531578505
9.070033062819357,-0.0036481307707963637
9.073940486925158,-0.0036301267204970136
9.07784791103096,-0.00361375783871543
9.08175533513676,-0.00359891487518371
9.085662759242561,-0.0035854488713310726
9.089570183348362,-0.0035731711602838574
9.093477607454163,-0.0035618638253105458
9.097385031559964,-0.0035514398023378554
9.101292455665766,-0.003541799067959508
9.105199879771567,-0.0035328191755234378
9.109107303877368,-0.0035243867827176255
9.113014727983169,-0.0035163976515700944
9.11692215208897,-0.003508756648448913
9.12082957619477,-0.003501377744062195
9.124737000300572,-0.0034941840134580975
9.128644424406373,-0.003487107636024823
9.132551848512174,-0.003480089895490617
9.136459272617975,-0.0034730811799237723
9.140366696723776,-0.0034660409817326232
9.144274120829577,-0.0034589378976655504
9.148181544935378,-0.0034517496288109786
9.152088969041179,-0.003444462980597377
9.15599639314698,-0.003437073862793259
9.159903817252781,-0.0034295872895071826
9.163811241358582,-0.0034220173791877514
9.167718665464383,-0.003414387354623612
9.171626089570184,-0.0034067295429434557
9.175533513675985,-0.0033992916797817695
9.179440937781786,-0.003393395482926322
9.183348361887587,-0.003387684933696545
9.187255785993388,-0.0033807433636566437
9.19116321009919,-0.003371779998944568
9.19507063420499,-0.0033606299602720155
9.198978058310791,-0.0033477542629244306
9.202885482416592,-0.0033342398167610036
9.206792906522393,-0.00332179942621467
9.210700330628194,-0.003312771790292114
9.214607754733995,-0.003310121502573764
9.218515178839796,-0.0033045372399298995
9.222422602945597,-0.0032882911776387137
9.226330027051398,-0.0035277850539037615
9.2302374511572,-0.004161552640324073
9.234144875263,-0.005124687786642912
9.238052299368801,-0.006148844420747777
9.241959723474602,-0.006801811383384592
9.245867147580404,-0.005959925157694545
9.249774571686205,-0.002445295457348763
9.253681995792006,0.0037500992420496926
9.257589419897807,0.011427746035408725
9.261496844003608,0.018103411713427185
9.265404268109409,0.020321689482462175
9.26931169221521,0.016700666575983174
9.27321911632101,0.008990259143061443
9.277126540426812,0.0009072246833924727
9.281033964532613,-0.00513894601698814
9.284941388638414,-0.008152287796279214
9.288848812744215,-0.008447891763629813
9.292756236850016,-0.007102457716263073
9.296663660955817,-0.005372405997489447
9.300571085061618,-0.004018978056186611
9.304478509167419,-0.003241322063040434
9.30838593327322,-0.0028304602029943504
9.312293357379021,-0.00260048935128097
9.316200781484822,-0.0024238256034335957
9.320108205590623,-0.0022180920684743088
9.324015629696424,-0.00194611886891397
9.327923053802225,-0.0016157033204576708
9.331830477908026,-0.0012363879767355351
9.335737902013827,-0.0007959304445168895
9.339645326119628,-0.00029343373821427493
9.34355275022543,0.0002683352318635199
9.34746017433123,0.0008829456595114591
9.351367598437031,0.0015403028426282616
9.355275022542832,0.0022266482150772233
9.359182446648633,0.002929457702202783
9.363089870754434,0.003625856569028479
9.366997294860235,0.00428655976574579
9.370904718966036,0.004885825129801542
9.374812143071837,0.005401453385897906
9.378719567177638,0.005814788145992401
9.38262699128344,0.006110715909297893
9.38653441538924,0.006277666062282592
9.390441839495042,0.006307610878670056
9.394349263600843,0.006196065519439192
9.398256687706644,0.005935861608835631
9.402164111812445,0.005534395822180607
9.406071535918246,0.005020687658026459
9.409978960024047,0.004421867283644182
9.413886384129848,0.00376288502741257
9.417793808235649,0.0030665113788182216
9.42170123234145,0.002353336988455539
9.42560865644725,0.0016417726680267239
9.429516080553052,0.0009480493903417835
9.433423504658853,0.00028621828931852354
9.437330928764654,-0.0003318493400174408
9.441238352870455,-0.0008964620415326963
9.445145776976256,-0.0014001081979860283
9.449053201082057,-0.0018374560310284171
9.452960625187858,-0.002205855743271865
9.456868049293659,-0.002509726093615656
9.46077547339946,-0.0027565412628403514
9.464682897505261,-0.0029533293472191685
9.468590321611062,-0.0031066440494639195
9.472497745716863,-0.0032225646787250113
9.476405169822664,-0.0033066961505914478
9.480312593928465,-0.0033641689870908265
9.484220018034266,-0.003399639316689343
9.488127442140067,-0.003417288874291784
9.492034866245868,-0.0034208250012415366
9.49594229035167,-0.003413480645320581
9.49984971445747,-0.0033980143607494915
9.503757138563271,-0.0033767103081874398
9.507664562669072,-0.0033513658599998246
9.511571986774873,-0.003323143192331612
9.515479410880674,-0.0032928896901056465
9.519386834986475,-0.0032613858529056063
9.523294259092276,-0.00322934844870165
9.527201683198077,-0.0031974305138504177
9.531109107303879,-0.003166221353095029
9.53501653140968,-0.003136246539565085
9.53892395551548,-0.0031079679147766673
9.542831379621282,-0.0030817835886323384
9.546738803727083,-0.003058027939421141
9.550646227832884,-0.003036971613818599
9.554553651938685,-0.0030188215268867166
9.558461076044486,-0.0030037208620739787
9.562368500150287,-0.0029917490712153506
9.566275924256088,-0.0029829218745322794
9.570183348361889,-0.0029772031521020704
9.57409077246769,-0.002974815612283114
9.57799819657349,-0.002975538911540504
9.581905620679292,-0.002978926580875065
9.585813044785093,-0.0029845443476987717
9.589720468890894,-0.0029919701358347484
9.593627892996695,-0.003000794065517269
9.597535317102496,-0.0030106184533917574
9.601442741208297,-0.003021057812514786
9.605350165314098,-0.003031738852354079
9.609257589419899,-0.003042300478788509
9.6131650135257,-0.003052393794108097
9.617072437631501,-0.0030616820970140166
9.620979861737302,-0.0030698408826185892
9.624887285843103,-0.0030765578424452864
9.628794709948904,-0.0030815328644287292
9.632702134054705,-0.003084478032914689
9.636609558160506,-0.0030851176286600854
9.640516982266307,-0.00308318812883299
9.644424406372108,-0.003078438207012622
9.64833183047791,-0.0030706315667434103
9.65223925458371,-0.003059840815066766
9.656146678689511,-0.003046297200010009
9.660054102795312,-0.0030301569808390996
9.663961526901113,-0.003011603240457393
9.667868951006914,-0.002990845885405635
9.671776375112714,-0.002968121645861976
9.675683799218515,-0.002943694075641928
9.679591223324316,-0.002917853552198426
9.683498647430117,-0.0028909172766217886
9.687406071535918,-0.002863229273639726
9.691313495641719,-0.0028351603916173425
9.69522091974752,-0.0028130850818894352
9.699128343853321,-0.0027951337043929728
9.703035767959122,-0.0027705754387972476
9.706943192064923,-0.002735291536763942
9.710850616170724,-0.0026918181541441396
9.714758040276525,-0.0026493463509783253
9.718665464382326,-0.002623722091496386
9.722572888488127,-0.0026374462441176084
9.726480312593928,-0.0027196745814506815
9.73038773669973,-0.003359777192509589
9.73429516080553,-0.004553922933981583
9.738202584911331,-0.005629996368574283
9.742110009017132,-0.006034875596295817
9.746017433122933,-0.005334577327780944
9.749924857228734,-0.003214256884291068
9.753832281334535,0.0005217918022857784
9.757739705440336,0.005950136189434899
9.761647129546137,0.013027107633005405
9.765554553651938,0.019725076183931385
9.76946197775774,0.021847454964764368
9.77336940186354,0.018150727582895446
9.777276825969341,0.01047868849851485
9.781184250075142,0.002343167779539135
9.785091674180943,-0.0038259798257787078
9.788999098286745,-0.006983696295768288
9.792906522392546,-0.0074147048846705055
9.796813946498347,-0.006146320661813707
9.800721370604148,-0.004427879348985905
9.804628794709949,-0.0030433350673406126
9.80853621881575,-0.0022401922661713794
9.81244364292155,-0.0018228828757594138
9.816351067027352,-0.0015946613276488944
9.820258491133153,-0.0014272081103756697
9.824165915238954,-0.0012371376306055495
9.828073339344755,-0.0009860624231707307
9.831980763450556,-0.0006797026711271366
9.835888187556357,-0.0003223094291011808
9.839795611662158,9.605229664005248e-05
9.843703035767959,0.000576562268596032
9.84761045987376,0.001117027790976973
9.851517883979561,0.001711883709703837
9.855425308085362,0.0023521924124083327
9.859332732191163,0.0030279725253548697
9.863240156296964,0.0037280088207891247
9.867147580402765,0.004424253712776079
9.871055004508566,0.005089776696573238
9.874962428614367,0.005700500553364225
9.878869852720168,0.006235201350258777
9.88277727682597,0.006675508440292743
9.88668470093177,0.007005904462428091
9.890592125037571,0.0072137253415528995
9.894499549143372,0.007289160288481367
9.898406973249173,0.0072252517999538
9.902314397354974,0.007012856693489507
9.906221821460775,0.006649381274270949
9.910129245566576,0.006164862521545604
9.914036669672377,0.0055887932174108375
9.917944093778178,0.0049480780093543765
9.92185151788398,0.004267033410254311
9.92575894198978,0.00356738779837909
9.929666366095582,0.0028682814173875233
9.933573790201383,0.0021862663763287807
9.937481214307184,0.001535306649642399
9.941388638412985,0.0009267780771582655
9.945296062518786,0.00036946836409663345
9.949203486624587,-0.0001304229189318818
9.953110910730388,-0.0005692843359262996
9.957018334836189,-0.0009460925854952954
9.96092575894199,-0.001262412500857164
9.96483318304779,-0.001521534529830981
9.968740607153592,-0.001729225613224086
9.972648031259393,-0.0018928032149598058
9.976555455365194,-0.0020190208636347616
9.980462879470995,-0.00211406161466254
9.984370303576796,-0.0021835380502736937
9.988277727682597,-0.0022324922795157404
9.992185151788398,-0.0022653959382531634
9.996092575894199,-0.0022861501891674125
10.0,-0.0022980857217569017
