time,amplitude
0.0009017132551849549,0.039805771307341004
0.004809137360985982,0.036859859769715966
0.00871656146678701,0.03131029550580487
0.012623985572588037,0.023859901805197738
0.016531409678389064,0.0154960987719998
0.02043883378419009,0.0071327644537498985
0.02434625788999112,-0.0005273830986833247
0.028253681995792146,-0.00699280750985002
0.03216110610159317,-0.011983154079719165
0.0360685302073942,-0.015412540825553246
0.03997595431319523,-0.01717715010992273
0.043883378418996255,-0.017581457652754654
0.04779080252479728,-0.01701541354664921
0.05169822663059831,-0.015816368951977525
0.05560565073639934,-0.014269076096881694
0.059513074842200364,-0.012605688277274736
0.06342049894800139,-0.01100575985684062
0.06732792305380242,-0.00959624626703429
0.07123534715960345,-0.008451504007081608
0.07514277126540447,-0.0075932906439793845
0.0790501953712055,-0.006990764812495376
0.08295761947700653,-0.006561394591626126
0.08686504358280756,-0.006224149258472929
0.09077246768860858,-0.0059507966131172345
0.09467989179440961,-0.005719851437245768
0.09858731590021064,-0.005512444701077611
0.10249474000601166,-0.005312323563364204
0.10640216411181269,-0.005105851371389345
0.11030958821761372,-0.004882007660969191
0.11421701232341475,-0.004632388156452254
0.11812443642921577,-0.004351204770719408
0.1220318605350168,-0.004035285605183883
0.12593928464081783,-0.0036840749497912663
0.12984670874661886,-0.003299633283019505
0.13375413285241988,-0.0028866372718789044
0.1376615569582209,-0.002449946922949472
0.14156898106402194,-0.0019840220109481606
0.14547640516982296,-0.0014879924408956185
0.149383829275624,-0.0009624184108748058
0.15329125338142502,-0.0004083092572988488
0.15719867748722605,0.0001728765450889568
0.16110610159302707,0.000779231383215151
0.1650135256988281,0.0014083985056761042
0.16892094980462868,0.0020575720227379423
0.1728283739104297,0.0027234969063368517
0.17673579801623074,0.0034024689900786255
0.18064322212203177,0.004090334969238967
0.1845506462278328,0.004782492400763408
0.18845807033363382,0.005473889703267309
0.19236549443943485,0.006159026157035878
0.19627291854523587,0.006831951904024139
0.2001803426510369,0.0074862679478569566
0.20408776675683793,0.008117652119171186
0.20799519086263896,0.008721593851844896
0.21190261496843998,0.009290432282047408
0.215810039074241,0.00981722342120623
0.21971746318004204,0.01029575435294923
0.22362488728584307,0.010720543233104635
0.2275323113916441,0.011086839289701028
0.23143973549744512,0.01139062282296735
0.23534715960324615,0.0116286052053329
0.23925458370904717,0.011798228881427331
0.2431620078148482,0.01189766736808066
0.24706943192064923,0.011925825254323256
0.25097685602645026,0.011882338201385848
0.2548842801322513,0.011767572942699525
0.2587917042380523,0.011582627283895728
0.26269912834385334,0.011329330102806262
0.26660655244965437,0.011010241349463283
0.2705139765554554,0.010628652046099312
0.2744214006612564,0.01018858428714722
0.27832882476705745,0.009694791239240243
0.2822362488728585,0.009149684608749695
0.2861436729786595,0.008557464504844391
0.29005109708446053,0.007925998879960582
0.29395852119026156,0.0072627546188123015
0.2978659452960626,0.006574797264236444
0.3017733694018636,0.005868791017192758
0.30568079350766464,0.00515099873676385
0.30958821761346567,0.004427281940155186
0.3134956417192667,0.0037031008026950866
0.3174030658250677,0.0029835141578347345
0.32131048993086875,0.0022731794971481587
0.3252179140366698,0.0015763529703322603
0.3291253381424708,0.0008968893852067863
0.33303276224827183,0.0002382422077143436
0.33694018635407286,-0.0003965364380795998
0.3408476104598739,-0.0010047957699867213
0.3447550345656749,-0.0015842863476958433
0.34866245867147594,-0.0021331600727729286
0.35256988277727697,-0.0026499701886610796
0.356477306883078,-0.0031336712806805476
0.360384730988879,-0.0035836192760287204
0.36429215509468005,-0.003999325028403542
0.3681995792004811,-0.004378512945363785
0.3721070033062821,-0.004722365141728529
0.37601442741208313,-0.0050330269462918135
0.37992185151788416,-0.005312576262549173
0.3838292756236852,-0.005563023568697647
0.3877366997294862,-0.0057863119176357735
0.39164412383528724,-0.005984316936963592
0.39555154794108827,-0.00615884682898264
0.3994589720468893,-0.006311642370695961
0.4033663961526903,-0.006444376913808092
0.40727382025849135,-0.006558656384725076
0.4111812443642924,-0.006656019284554459
0.4150886684700934,-0.006737936689105278
0.41899609257589443,-0.00680581224888808
0.42290351668169546,-0.006860982189114907
0.4268109407874965,-0.006904715309699303
0.4307183648932975,-0.006938212985256315
0.43462578899909854,-0.006962609165102487
0.43853321310489957,-0.0069789703732558665
0.4424406372107006,-0.006988295708436001
0.4463480613165016,-0.006991516844063937
0.45025548542230265,-0.006989498028262226
0.4541629095281037,-0.006983036083854908
0.4580703336339047,-0.006972860408367541
0.46197775773970573,-0.0069596329740271735
0.46588518184550676,-0.006943948327762355
0.4697926059513078,-0.006926333591203137
0.4737000300571088,-0.0069072484606810675
0.47760745416290984,-0.006887085207229207
0.48151487826871087,-0.006866168676582098
0.4854223023745119,-0.006844756289175809
0.4893297264803129,-0.006823038040147882
0.49323715058611395,-0.006801136499337371
0.497144574691915,-0.006779106811284847
0.501051998797716,-0.0067569366952323455
0.5049594229035166,-0.006734546445123439
0.5088668470093176,-0.006711788929603178
0.5127742711151186,-0.006688449592018121
0.5166816952209197,-0.006664246450416319
0.5205891193267207,-0.006639028203381461
0.5244965434325217,-0.006613598602648638
0.5284039675383227,-0.0065881175181924405
0.5323113916441238,-0.006562610511995933
0.5362188157499248,-0.006537101424980745
0.5401262398557258,-0.0065116123770070766
0.5440336639615269,-0.006486163766873695
0.5479410880673279,-0.006460774272317934
0.5518485121731289,-0.0064354608500156955
0.5557559362789299,-0.00641023873558145
0.559663360384731,-0.006385121443568236
0.563570784490532,-0.006360120767467658
0.567478208596333,-0.0063352467797098905
0.571385632702134,-0.006310507831663675
0.5752930568079351,-0.0062859105536363195
0.5792004809137361,-0.006261459854873703
0.5831079050195371,-0.006237158923560268
0.5870153291253382,-0.006213009226819028
0.5909227532311392,-0.006189010510711564
0.5948301773369402,-0.006165160800238023
0.5987376014427412,-0.006141456399337122
0.6026450255485423,-0.006117891890886145
0.6065524496543433,-0.0060944601367009426
0.6104598737601443,-0.006071152277535935
0.6143672978659453,-0.006047957733084109
0.6182747219717464,-0.00602486420197702
0.6221821460775474,-0.0060018576617847895
0.6260895701833484,-0.00597892236901611
0.6299969942891495,-0.00595604085911824
0.6339044183949505,-0.005933193946477004
0.6378118425007515,-0.005910360724416798
0.6417192666065525,-0.005887518565200583
0.6456266907123536,-0.005864643120029888
0.6495341148181546,-0.0058417083190448115
0.6534415389239556,-0.005818686371324018
0.6573489630297566,-0.005795547764884742
0.6612563871355577,-0.0057722612666827825
0.6651638112413587,-0.00574879392261251
0.6690712353471597,-0.00572511105750686
0.6729786594529608,-0.005701176275137337
0.6768860835587618,-0.005676951883788773
0.6807935076645628,-0.00565304768061315
0.6847009317703638,-0.0056295020438685605
0.6886083558761649,-0.005605401678456011
0.6925157799819659,-0.00557967252529494
0.6964232040877669,-0.005551079761323219
0.700330628193568,-0.005518227799497148
0.704238052299369,-0.005479560288791461
0.70814547640517,-0.005433360114199322
0.712052900510971,-0.005377749396732327
0.7159603246167721,-0.005310689493420504
0.7198677487225731,-0.005229980997312311
0.7237751728283741,-0.005133263737474641
0.7276825969341751,-0.005018016778992814
0.7315900210399762,-0.004881558422970585
0.7354974451457772,-0.004721046206530138
0.7394048692515782,-0.0045334769028120905
0.7433122933573793,-0.004315686520975489
0.7472197174631803,-0.004064350306197817
0.7511271415689813,-0.003775982739674981
0.7550345656747823,-0.003446937538621327
0.7589419897805834,-0.003073407656269628
0.7628494138863844,-0.0026514252818710905
0.7667568379921854,-0.0021768618406953497
0.7706642620979864,-0.001644759746873554
0.7745716862037875,-0.001057011167199928
0.7784791103095885,-0.0004249503258303394
0.7823865344153895,0.0002397745974641605
0.7862939585211906,0.0009254780509188988
0.7902013826269916,0.0016204371107755838
0.7941088067327926,0.0023128914812823036
0.7980162308385936,0.002991043494693526
0.8019236549443947,0.003643058111270099
0.8058310790501957,0.004257062919279249
0.8097385031559967,0.004821148134994586
0.8136459272617977,0.005323366602696094
0.8175533513675988,0.005751733794670142
0.8214607754733998,0.0060942278112094805
0.8253681995792008,0.006338789380613231
0.8292756236850019,0.006473321859186906
0.8331830477908029,0.006485607659672828
0.8370904718966035,0.006367807672121443
0.8409978960024045,0.0061309232414094705
0.8449053201082055,0.0057894705412260715
0.8488127442140065,0.005357585735094525
0.8527201683198076,0.004849024976372234
0.8566275924256086,0.004277164408250728
0.8605350165314096,0.00365500016375566
0.8644424406372107,0.002995148365746804
0.8683498647430117,0.0023098451269180616
0.8722572888488127,0.0016109465497974595
0.8761647129546137,0.0009099287267471416
0.8800721370604148,0.0002178877399633865
0.8839795611662158,-0.0004544603385234136
0.8878869852720168,-0.0010967794468487333
0.8917944093778178,-0.001699113533313928
0.8957018334836189,-0.0022518865563862303
0.8996092575894199,-0.002744981421529947
0.9035166816952209,-0.0031831945314255298
0.907424105801022,-0.0035914168819593285
0.911331529906823,-0.003995871073598334
0.915238954012624,-0.004423433330952152
0.919146378118425,-0.004901633502773008
0.9230538022242261,-0.005458655061955741
0.9269612263300271,-0.00612333510553781
0.9308686504358281,-0.0069251643546992874
0.9347760745416291,-0.007894287154762866
0.9386834986474302,-0.009047754458351364
0.9425909227532312,-0.010252628786554353
0.9464983468590322,-0.011290114324966355
0.9504057709648333,-0.011942031087266287
0.9543131950706343,-0.011991661792488853
0.9582206191764353,-0.011223751865024553
0.9621280432822363,-0.009424509434619675
0.9660354673880374,-0.006381605336376295
0.9699428914938384,-0.0018812809682278117
0.9738503155996394,0.00403711980687522
0.9777577397054404,0.011021185155785684
0.9816651638112415,0.018594801438400185
0.9855725879170425,0.026162229183434742
0.9894800120228435,0.033008103088424764
0.9933874361286446,0.03829743201972509
0.9972948602344456,0.041075599012509956
1.0012022843402466,0.04050411084872184
1.0051097084460476,0.03692268245335639
1.0090171325518487,0.031071003489980063
1.0129245566576497,0.023684465268413703
1.0168319807634507,0.01549399409751371
1.0207394048692517,0.007226051285171967
1.0246468289750528,-0.0003973668616840814
1.0285542530808538,-0.006686429734831948
1.0324616771866548,-0.011403477270403035
1.0363691012924559,-0.014601596970643189
1.0402765253982569,-0.016379337398392417
1.044183949504058,-0.016893978963379554
1.048091373609859,-0.016361533922222254
1.05199879771566,-0.01505674637842698
1.055906221821461,-0.013313092282389033
1.059813645927262,-0.01150959775097091
1.063721070033063,-0.009867280756860048
1.067628494138864,-0.008455040306000364
1.071535918244665,-0.007311313085139517
1.0754433423504661,-0.0064450372394838935
1.0793507664562672,-0.005835652372698624
1.0832581905620682,-0.00543309954690758
1.0871656146678692,-0.005157821282693367
1.0910730387736702,-0.004922755918749351
1.0949804628794713,-0.0047110834180513865
1.0988878869852723,-0.004508802613706697
1.1027953110910733,-0.00430323415193446
1.1067027351968743,-0.004084279682478969
1.1106101593026754,-0.0038444218586096302
1.1145175834084764,-0.003578724337120964
1.1184250075142774,-0.003284831778332604
1.1223324316200785,-0.002962969846089298
1.1262398557258795,-0.0026150527627081172
1.1301472798316805,-0.002239010261449076
1.1340547039374815,-0.0018333532122454482
1.1379621280432826,-0.0013973668855922518
1.1418695521490836,-0.0009307965858505744
1.1457769762548846,-0.00043384765124757215
1.1496844003606856,9.281454612352757e-05
1.1535918244664867,0.0006480646003034292
1.1574992485722877,0.0012303170714667673
1.1614066726780887,0.0018375264859221063
1.1653140967838898,0.0024671873361119413
1.1692215208896908,0.0031163340806127
1.1731289449954918,0.0037815411441347374
1.1770363691012928,0.004458922917522342
1.1809437932070939,0.005144133757753727
1.1848512173128949,0.005833584095320706
1.188758641418696,0.006525384440395083
1.192666065524497,0.007211789743826773
1.196573489630298,0.00788498806566614
1.200480913736099,0.00853766432490703
1.2043883378419,0.009163000299486787
1.208295761947701,0.00975467462628624
1.212203186053502,0.010306862801129715
1.216110610159303,0.010814237178785017
1.2200180342651041,0.011271966972963454
1.2239254583709052,0.011675718256319821
1.2278328824767062,0.012021653960452402
1.2317403065825072,0.012306433875902969
1.2356477306883082,0.012527214652156789
1.2395551547941093,0.012681649797642618
1.2434625788999103,0.012767889679732705
1.2473700030057113,0.012784581524742784
1.2512774271115124,0.012730869417932084
1.2551848512173134,0.012606394303503325
1.2590922753231144,0.012411293984602716
1.2629996994289154,0.012144261186541438
1.2669071235347165,0.01180006258367347
1.2708145476405175,0.011385807214902741
1.2747219717463185,0.010909747297482763
1.2786293958521195,0.010379790192556429
1.2825368199579206,0.009803498405156007
1.2864442440637216,0.00918808958420315
1.2903516681695226,0.008540436522508889
1.2942590922753237,0.007867067156773634
1.2981665163811247,0.007174164567587174
1.3020739404869257,0.006467566979428677
1.3059813645927267,0.005752767760666695
1.3098887886985278,0.005034915423559156
1.3137962128043288,0.0043188136242533655
1.3177036369101298,0.003608921162786013
1.3216110610159308,0.0029093519830831645
1.3255184851217319,0.002223875172960266
1.329425909227533,0.0015559149641221452
1.333333333333334,0.0009085507321630083
1.337240757439134,0.00028451699656657954
1.341148181544935,-0.0003137965792944612
1.3450556056507361,-0.00088434518815763
1.3489630297565371,-0.0014254288788711905
1.3528704538623382,-0.00193569255639405
1.3567778779681392,-0.0024141259817957155
1.3606853020739402,-0.00286006377225634
1.3645927261797413,-0.0032731854010666656
1.3685001502855423,-0.0036535151976280697
1.3724075743913433,-0.004001422347452561
1.3763149984971443,-0.004317556428791234
1.3802224226029454,-0.004602072017831075
1.3841298467087464,-0.004856616100288707
1.3880372708145474,-0.005083286244214817
1.3919446949203484,-0.005284101311574276
1.3958521190261495,-0.005461001458246146
1.3997595431319505,-0.005615848134023675
1.4036669672377515,-0.005750424082614297
1.4075743913435526,-0.005866433341639636
1.4114818154493536,-0.005965501242635502
1.4153892395551546,-0.006049174411051891
1.4192966636609556,-0.0061189207662529915
1.4232040877667567,-0.006176129521517174
1.4271115118725577,-0.006222111184037
1.4310189359783587,-0.006258097554919215
1.4349263600841597,-0.006285241729184755
1.4388337841899608,-0.006304618095768742
1.4427412082957618,-0.006317222337520487
1.4466486324015628,-0.006323971431203487
1.4505560565073639,-0.0063257036474954256
1.4544634806131649,-0.006323178550988176
1.458370904718966,-0.006317077000187797
1.462278328824767,-0.006308001147514534
1.466185752930568,-0.0062964744393028274
1.470093177036369,-0.00628294161580129
1.47400060114217,-0.006267768711172743
1.477908025247971,-0.006251243053494174
1.481815449353772,-0.006233573264756768
1.485722873459573,-0.006214889260865898
1.4896302975653741,-0.00619524225164113
1.4935377216711752,-0.006174604740816202
1.4974451457769762,-0.006153118740480265
1.5013525698827772,-0.006131334223903667
1.5052599939885782,-0.006109308715882895
1.5091674180943793,-0.006087072682738237
1.5130748422001803,-0.0060646552282825695
1.5169822663059813,-0.0060420840938213635
1.5208896904117823,-0.00601938565815268
1.5247971145175834,-0.005996584937567175
1.5287045386233844,-0.005973705585848094
1.5326119627291854,-0.005950769894271274
1.5365193868349865,-0.005927798791605146
1.5404268109407875,-0.005904811844110731
1.5443342350465885,-0.005881827255541643
1.5482416591523895,-0.005858861867144087
1.5521490832581906,-0.005835931157656862
1.5560565073639916,-0.005813049243311356
1.5599639314697926,-0.005790228877831551
1.5638713555755936,-0.0057674814524340205
1.5677787796813947,-0.005744816995827929
1.5716862037871957,-0.0057222441742150335
1.5755936278929967,-0.005699770291289683
1.5795010519987978,-0.005677401288238819
1.5834084761045988,-0.005655141743741975
1.5873159002103998,-0.005632994873971274
1.5912233243162008,-0.005610962532591433
1.5951307484220019,-0.005589045210759762
1.599038172527803,-0.00556724203712616
1.602945596633604,-0.00554555077783312
1.606853020739405,-0.005523967836515726
1.610760444845206,-0.005502488254301653
1.614667868951007,-0.005481105709811172
1.618575293056808,-0.005459812519157141
1.622482717162609,-0.0054385996359450125
1.62639014126841,-0.00541745665127283
1.630297565374211,-0.0053963717937312305
1.6342049894800121,-0.00537533192940344
1.6381124135858132,-0.005354079439011065
1.6420198376916142,-0.0053324085263140135
1.6459272617974152,-0.005310625032264378
1.6498346859032162,-0.005288964560816079
1.6537421100090173,-0.005267584419015931
1.6576495341148183,-0.005246563617003652
1.6615569582206193,-0.005225902868011854
1.6654643823264204,-0.005205524588366051
1.6693718064322214,-0.005185272897484651
1.6732792305380224,-0.005164913617878964
1.6771866546438234,-0.005144134275153196
1.6810940787496245,-0.005122544098004454
1.6850015028554255,-0.0050996740182227395
1.6889089269612265,-0.005074976670690954
1.6928163510670275,-0.005047826393384899
1.6967237751728286,-0.005017519227373273
1.7006311992786296,-0.004983272916817671
1.7045386233844306,-0.004944226908972588
1.7084460474902317,-0.0048994423541854175
1.7123534715960327,-0.004851000930899379
1.7162608957018337,-0.004798611425829754
1.7201683198076347,-0.004735978072214729
1.7240757439134358,-0.004657308904992396
1.7279831680192368,-0.004557347081730268
1.7318905921250378,-0.004431370882625287
1.7357980162308388,-0.004275193710503812
1.7397054403366399,-0.00408516409082163
1.743612864442441,-0.0038581656716639504
1.747520288548242,-0.0035916172237454034
1.751427712654043,-0.0032834726404100457
1.755335136759844,-0.002932220937631355
1.759242560865645,-0.002536886254012236
1.763149984971446,-0.002097027850785012
1.767057409077247,-0.0016127401118114317
1.770964833183048,-0.0010846525435826704
1.7748722572888491,-0.0005139297752193199
1.7787796813946501,9.772844152860019e-05
1.7826871055004512,0.0007480872322816459
1.7865945296062522,0.0014335636611914596
1.7905019537120532,0.0021398186943615595
1.7944093778178543,0.0028487247571087723
1.7983168019236553,0.0035433429139117858
1.8022242260294563,0.004207923790732338
1.8061316501352573,0.004827907575015229
1.8100390742410584,0.005389924015688311
1.8139464983468594,0.005881792423162485
1.8178539224526604,0.0062925216693317226
1.8217613465584614,0.006612310187573035
1.8256687706642625,0.006832545972746495
1.8295761947700635,0.006945806581195234
1.8334836188758645,0.006945859130745434
1.8373910429816656,0.006827549415449195
1.8412984670874666,0.006589669965885093
1.8452058911932676,0.006244236430255521
1.8491133152990686,0.005805475902856855
1.8530207394048697,0.005287399553281684
1.8569281635106707,0.004703802626418814
1.8608355876164717,0.004068264442453269
1.8647430117222727,0.003394148396866281
1.8686504358280738,0.0026946019604353073
1.8725578599338748,0.001982556679234016
1.8764652840396758,0.0012707281746322909
1.8803727081454769,0.0005716161432962295
1.8842801322512779,-0.00010249564281184648
1.888187556357079,-0.0007395393364334106
1.89209498046288,-0.001297836952548392
1.896002404568681,-0.0016766455859662098
1.899909828674482,-0.001957430203776047
1.903817252780283,-0.002226265069047418
1.907724676886084,-0.0025518240469897457
1.911632100991885,-0.002985380604952363
1.915539525097686,-0.0035608078124245083
1.9194469492034871,-0.004294578341035336
1.9233543733092882,-0.005185764464553899
1.9272617974150892,-0.006216038058889165
1.9311692215208902,-0.007349670602090009
1.9350766456266912,-0.008533533174345218
1.9389840697324923,-0.009697096457983487
1.9428914938382933,-0.010752430737473402
1.9467989179440943,-0.011594205899423497
1.9507063420498953,-0.012099691432582188
1.9546137661556964,-0.012128354662973783
1.9585211902614974,-0.01139634502028619
1.9624286143672984,-0.009511686978411659
1.9663360384730995,-0.0062381079692122405
1.9702434625789005,-0.001512183045896804
1.9741508866847015,0.004556665116978959
1.9780583107905025,0.011686166223512533
1.9819657348963036,0.01942120235645458
1.9858731590021046,0.02713453028363803
1.9897805831079056,0.034005360356062844
1.9936880072137066,0.038980626459626626
1.9975954313195077,0.0412919566321199
2.001502855425308,0.040582374259695596
2.005410279531109,0.03690629807686769
2.00931770363691,0.03072954216651216
2.013225127742711,0.022927497968007426
2.017132551848512,0.014508185614489561
2.021039975954313,0.00626768096117589
2.024947400060114,-0.0011525314840705077
2.028854824165915,-0.007303657404209071
2.032762248271716,-0.011929592673021686
2.036669672377517,-0.014966923355112762
2.040577096483318,-0.016542328882357522
2.044484520589119,-0.016802275611681246
2.04839194469492,-0.016062074151141147
2.052299368800721,-0.01469743492666039
2.056206792906522,-0.013020237347251452
2.0601142170123232,-0.011278529805016094
2.0640216411181243,-0.009656529675145378
2.0679290652239253,-0.00827462331591967
2.0718364893297263,-0.0071893660687086264
2.0757439134355273,-0.006393382571916102
2.0796513375413284,-0.005795260983494227
2.0835587616471294,-0.005327628107521161
2.0874661857529304,-0.004962861994943621
2.0913736098587314,-0.004675722928112119
2.0952810339645325,-0.00444335342078097
2.0991884580703335,-0.004245278218108283
2.1030958821761345,-0.00406340429665597
2.1070033062819356,-0.00388202086438974
2.1109107303877366,-0.0036877993606790967
2.1148181544935376,-0.0034697934562973477
2.1187255785993386,-0.003219439053421599
2.1226330027051397,-0.00293055428563275
2.1265404268109407,-0.002599339517915504
2.1304478509167417,-0.0022243773466583587
2.1343552750225427,-0.0018066325996536079
2.1382626991283438,-0.0013494523360973645
2.142170123234145,-0.0008585658465895107
2.146077547339946,-0.0003420846531337271
2.149984971445747,0.0001911286353954704
2.153892395551548,0.0007499023270592023
2.157799819657349,0.0013360501104687625
2.16170724376315,0.0019468517826998133
2.165614667868951,0.002579297953430871
2.169522091974752,0.003230090044943312
2.173429516080553,0.003895640292121365
2.177336940186354,0.004572071742452118
2.181244364292155,0.005255218256025513
2.185151788397956,0.005940624505534351
2.189059212503757,0.00662354597627429
2.192966636609558,0.007298948966143843
2.196874060715359,0.007961510585644377
2.20078148482116,0.00860561875788012
2.2046889089269612,0.009225372218558153
2.2085963330327623,0.009814580515988415
2.2125037571385633,0.010366764011083702
2.2164111812443643,0.010875153877359664
2.2203186053501653,0.011333378001617198
2.2242260294559664,0.011737727353152462
2.2281334535617674,0.012083869834074222
2.2320408776675684,0.012367973657432042
2.2359483017733695,0.01258688812573857
2.2398557258791705,0.012738143630969515
2.2437631499849715,0.012819951654563665
2.2476705740907725,0.012831204767422878
2.2515779981965736,0.012771476629912085
2.2554854223023746,0.012641021991859286
2.2593928464081756,0.012440776692555559
2.2633002705139766,0.012172357660755044
2.2672076946197777,0.011838062914674964
2.2711151187255787,0.011440871561995608
2.2750225428313797,0.010984443799860338
2.2789299669371808,0.01047312091487559
2.282837391042982,0.009911925283110863
2.286744815148783,0.009306560370098745
2.290652239254584,0.008663410730834884
2.294559663360385,0.007989542009777998
2.298467087466186,0.007292700940849887
2.302374511571987,0.006581011645065301
2.306281935677788,0.005857845620221341
2.310189359783589,0.005128092205190335
2.31409678388939,0.0043977053811520925
2.318004207995191,0.003672173217309145
2.321911632100992,0.002956517870886745
2.325819056206793,0.002255295587132866
2.329726480312594,0.0015725966993182074
2.333633904418395,0.0009120456287361857
2.337541328524196,0.0002768008847029409
2.341448752629997,-0.0003304449354426635
2.345356176735798,-0.0009074651463390412
2.3492636008415992,-0.0014524989746018922
2.3531710249474003,-0.001964251558824185
2.3570784490532013,-0.0024418939495761734
2.3609858731590023,-0.002885063109405379
2.3648932972648034,-0.003293861912836621
2.3688007213706044,-0.00366885914637197
2.3727081454764054,-0.004011089508490799
2.3766155695822064,-0.004322053609649748
2.3805229936880075,-0.004603717972282732
2.3844304177938085,-0.004857382083454652
2.3883378418996095,-0.005083093352155889
2.3922452660054105,-0.005282855834593729
2.3961526901112116,-0.005458656901323721
2.4000601142170126,-0.005612399804019117
2.4039675383228136,-0.005745903675470871
2.4078749624286147,-0.005860903529587638
2.4117823865344157,-0.005959050261395777
2.4156898106402167,-0.006041910647039345
2.4195972347460177,-0.006110967343780104
2.4235046588518188,-0.006167618889997516
2.42741208295762,-0.006213179705188748
2.431319507063421,-0.006248880089968664
2.435226931169222,-0.006275866226069833
2.439134355275023,-0.006295200176342525
2.443041779380824,-0.006307859884754713
2.446949203486625,-0.006314739176392071
2.450856627592426,-0.006316647757457973
2.454764051698227,-0.006314311215273499
2.458671475804028,-0.0063083710182774266
2.462578899909829,-0.006299384516026238
2.46648632401563,-0.006287824939194116
2.470393748121431,-0.006274081399572944
2.474301172227232,-0.0062584588900723125
2.478208596333033,-0.006241244781931542
2.482116020438834,-0.006223013951749859
2.486023444544635,-0.0062039422840930595
2.4899308686504362,-0.006184120109382823
2.4938382927562373,-0.006163633455984849
2.4977457168620383,-0.006142564050208853
2.5016531409678393,-0.0061209893163085725
2.5055605650736403,-0.006098982376481762
2.5094679891794414,-0.006076612050870195
2.5133754132852424,-0.006053942857559663
2.5172828373910434,-0.0060310350125799776
2.5211902614968444,-0.00600794442990497
2.5250976856026455,-0.005984722721452487
2.5290051097084465,-0.0059614171970843975
2.5329125338142475,-0.005938070864606588
2.5368199579200486,-0.0059147224297689625
2.5407273820258496,-0.005891406296265446
2.5446348061316506,-0.005868152565733981
2.5485422302374516,-0.00584498703775653
2.5524496543432527,-0.005821931209859071
2.5563570784490537,-0.005799002277511605
2.5602645025548547,-0.00577621313412815
2.5641719266606557,-0.005753572371066742
2.5680793507664568,-0.005731084277629437
2.571986774872258,-0.005708748841062308
2.575894198978059,-0.005686561746555451
2.57980162308386,-0.0056645143772429745
2.583709047189661,-0.005642593814203013
2.587616471295462,-0.0056207828364577125
2.591523895401263,-0.005599059920973244
2.595431319507064,-0.005577399242659793
2.599338743612865,-0.005555770674371565
2.603246167718666,-0.00553412943122313
2.607153591824467,-0.0055120733238924
2.611061015930268,-0.005489599923131843
2.614968440036069,-0.0054669423663349145
2.61887586414187,-0.005444300592057128
2.622783288247671,-0.005421841340016064
2.626690712353472,-0.005399698151091366
2.630598136459273,-0.005377971367324738
2.6345055605650742,-0.0053567281319199505
2.6384129846708753,-0.005336002389242834
2.6423204087766763,-0.005315794884821285
2.6462278328824773,-0.005296073165345262
2.6501352569882783,-0.005276771578666784
2.6540426810940794,-0.005257791273799938
2.6579501051998804,-0.005239000200920871
2.6618575293056814,-0.005220233111367793
2.6657649534114825,-0.005201291557640979
2.6696723775172826,-0.00518194389340277
2.6735798016230836,-0.005161925273477557
2.6774872257288846,-0.005140937653851808
2.6813946498346857,-0.0051186497916740495
2.6853020739404867,-0.005094697245254871
2.6892094980462877,-0.005068682374066926
2.6931169221520888,-0.0050401743387449285
2.69702434625789,-0.005008709101085659
2.700931770363691,-0.004973789424047959
2.704839194469492,-0.004935028801743841
2.708746618575293,-0.004892657005507528
2.712654042681094,-0.004843751999338701
2.716561466786895,-0.0047847322524599695
2.720468890892696,-0.004712087512883674
2.724376314998497,-0.00462237880741188
2.728283739104298,-0.004512238441636381
2.732191163210099,-0.004378369999938698
2.7360985873159,-0.004217548345490077
2.740006011421701,-0.004026619620251493
2.743913435527502,-0.0038025012449736466
2.747820859633303,-0.0035421819191969665
2.751728283739104,-0.003242721621251608
2.755635707844905,-0.002901251608257453
2.759543131950706,-0.002514974416124112
2.7634505560565072,-0.0020811638595509187
2.7673579801623083,-0.0015971650320269386
2.7712654042681093,-0.0010589053531854058
2.7751728283739103,-0.0004638518326555912
2.7790802524797114,0.000176035488544529
2.7829876765855124,0.000847745450184915
2.7868951006913134,0.0015384683949671214
2.7908025247971144,0.002235596168524298
2.7947099489029155,0.0029267221194211883
2.7986173730087165,0.003599641099154128
2.8025247971145175,0.004242349462151053
2.8064322212203185,0.004843045065771488
2.8103396453261196,0.005390127270306553
2.8142470694319206,0.005872196938978964
2.8181544935377216,0.006278056437943033
2.8220619176435227,0.006596709636284663
2.8259693417493237,0.006817361906021354
2.8298767658551247,0.006929420122102197
2.8337841899609257,0.006922492662407881
2.8376916140667268,0.00678606974205981
2.841599038172528,0.006524958889697683
2.845506462278329,0.006156684985315773
2.84941388638413,0.005698082531553624
2.853321310489931,0.0051651085016442885
2.857228734595732,0.0045728423394143305
2.861136158701533,0.003935485959283828
2.865043582807334,0.0032663637462663677
2.868951006913135,0.0025779225559690493
2.872858431018936,0.0018817317145924843
2.876765855124737,0.0011884830189307942
2.880673279230538,0.0005079907363716128
2.884580703336339,-0.00015080839510391627
2.88848812744214,-0.0007798551669211343
2.892395551547941,-0.001371967899911876
2.896302975653742,-0.0019208424443144557
2.900210399759543,-0.0024210521797736924
2.9041178238653442,-0.002863552771522074
2.9080252479711453,-0.003238415551305141
2.9119326720769463,-0.0036037978678486104
2.9158400961827473,-0.004015649271311564
2.9197475202885483,-0.0045163213657848245
2.9236549443943494,-0.005134567809290955
2.9275623685001504,-0.005885544313784264
2.9314697926059514,-0.0067708086451508
2.9353772167117524,-0.007778320623208351
2.9392846408175535,-0.008882442121706453
2.9431920649233545,-0.010058311045748645
2.9470994890291555,-0.011189295331415529
2.9510069131349566,-0.011894436670261337
2.9549143372407576,-0.011841830327353038
2.9588217613465586,-0.010780595491025481
2.9627291854523596,-0.008540875272881403
2.9666366095581607,-0.005033836707791434
2.9705440336639617,-0.00025167075389407635
2.9744514577697627,0.0057324077074042724
2.9783588818755637,0.012764159871429332
2.9822663059813648,0.0206028759986965
2.986173730087166,0.028470634842089088
2.990081154192967,0.035156275710367876
2.993988578298768,0.039743451229923676
2.997896002404569,0.04164801041003335
3.00180342651037,0.04061799864285982
3.005710850616171,0.036733657703452084
3.009618274721972,0.030410951859657465
3.013525698827773,0.02250783075427567
3.017433122933574,0.014046975824800596
3.021340547039375,0.005859433069340239
3.025247971145176,-0.0014310037186218358
3.029155395250977,-0.00740779295022647
3.033062819356778,-0.011861645241238977
3.036970243462579,-0.014737324043524916
3.04087766756838,-0.015994184941911963
3.044785091674181,-0.01600743824567669
3.0486925157799822,-0.015158227911078957
3.0525999398857833,-0.013773842134370808
3.0565073639915843,-0.012127713351796446
3.0604147880973853,-0.010439418239592267
3.0643222122031863,-0.008874677713986846
3.0682296363089874,-0.007545356931200875
3.0721370604147884,-0.0065094652874472855
3.0760444845205894,-0.005771156418931179
3.0799519086263905,-0.00528072820184978
3.0838593327321915,-0.0049346227880654675
3.0877667568379925,-0.004644921746847372
3.0916741809437935,-0.004404816684183523
3.0955816050495946,-0.004194345818555074
3.0994890291553956,-0.0039963412767238865
3.1033964532611966,-0.0037964290937325318
3.1073038773669976,-0.0035830292129042903
3.1112113014727987,-0.0033473554858431545
3.1151187255785997,-0.003083415672433822
3.1190261496844007,-0.0027880114408417047
3.1229335737902018,-0.0024607383675129186
3.126840997896003,-0.002103985937174295
3.130748422001804,-0.0017220726656681845
3.134655846107605,-0.0013119935706076926
3.138563270213406,-0.000871810014266422
3.142470694319207,-0.00040125963899683694
3.146378118425008,9.94482932756423e-05
3.150285542530809,0.0006296329010526346
3.15419296663661,0.0011881416832628029
3.158100390742411,0.0017733505192618505
3.162007814848212,0.002383163668832521
3.165915238954013,0.003015013772184602
3.169822663059814,0.0036658618499549205
3.173730087165615,0.004332197303207349
3.177637511271416,0.005010037913432793
3.181544935377217,0.005694929842549211
3.185452359483018,0.006381947632901595
3.189359783588819,0.007065920010092323
3.1932672076946202,0.0077450487817347455
3.1971746318004213,0.008412818620817502
3.2010820559062223,0.009061068246911119
3.2049894800120233,0.009682243526769177
3.2088969041178244,0.010269397474328305
3.2128043282236254,0.010816190250708197
3.2167117523294264,0.011316889164211589
3.2206191764352274,0.011766368670324275
3.2245266005410285,0.012160110371715107
3.2284340246468295,0.012494203018235981
3.2323414487526305,0.012765342506921852
3.2362488728584315,0.012970831881990729
3.2401562969642326,0.013108581334843675
3.2440637210700336,0.013177108204064803
3.2479711451758346,0.01317553697542128
3.2518785692816357,0.013103599281863335
3.2557859933874367,0.012961633903524235
3.2596934174932377,0.01275058676772031
3.2636008415990387,0.012472010948950948
3.2675082657048398,0.012128066668898579
3.271415689810641,0.011717838952501086
3.275323113916442,0.011243930348151084
3.279230538022243,0.010714456135778266
3.283137962128044,0.010137181854045673
3.287045386233845,0.009519521859468232
3.290952810339646,0.008868539326412754
3.294860234445447,0.008190946247097933
3.298767658551248,0.007493103431594348
3.302675082657049,0.006781020507824466
3.30658250676285,0.006060355921562636
3.310489930868651,0.005336416936435089
3.314397354974452,0.004614159633919946
3.318304779080253,0.0038981889133472072
3.322212203186054,0.0031927584918987617
3.326119627291855,0.002501770904608385
3.330027051397656,0.0018287775043617262
3.3339344755034572,0.0011769784618963289
3.3378418996092574,0.0005492227658017625
3.3417493237150584,-5.199177748094891e-05
3.3456567478208594,-0.0006245185436584682
3.3495641719266604,-0.0011665620905857172
3.3534715960324615,-0.0016766781582657209
3.3573790201382625,-0.0021537736688496453
3.3612864442440635,-0.002597106726636749
3.3651938683498646,-0.0030062866180744115
3.3691012924556656,-0.003380521911897083
3.3730087165614666,-0.0037197284776008394
3.3769161406672676,-0.0040260252224339306
3.3808235647730687,-0.004301502249271426
3.3847309888788697,-0.004548180935285817
3.3886384129846707,-0.004768013931947018
3.3925458370904717,-0.004962885165022366
3.3964532611962728,-0.005134609834576618
3.400360685302074,-0.005284934414971957
3.404268109407875,-0.0054155366548679865
3.408175533513676,-0.005528025577221731
3.412082957619477,-0.005623941479287643
3.415990381725278,-0.005704755932617588
3.419897805831079,-0.0057718717830608605
3.42380522993688,-0.00582662315076418
3.427712654042681,-0.005870275430171681
3.431620078148482,-0.005904025290024923
3.435527502254283,-0.005929000673362891
3.439434926360084,-0.005946260797521989
3.443342350465885,-0.005956796154136045
3.447249774571686,-0.005961528509136307
3.451157198677487,-0.005961310902751451
3.455064622783288,-0.005956927649507565
3.458972046889089,-0.005949094338228176
3.4628794709948902,-0.005938457832034215
3.4667868951006913,-0.005925596268344043
3.4706943192064923,-0.005911019058873451
3.4746017433122933,-0.005895166889635647
3.4785091674180943,-0.005878411720941243
3.4824165915238954,-0.005861056787398311
3.4863240156296964,-0.005843336597912317
3.4902314397354974,-0.005825416935686152
3.4941388638412985,-0.005807394858220133
3.4980462879470995,-0.005789298697312014
3.5019537120529005,-0.005771088059056949
3.5058611361587015,-0.005752653823847525
3.5097685602645026,-0.005733818146373742
3.5136759843703036,-0.005714334455623045
3.5175834084761046,-0.005693887454880281
3.5214908325819057,-0.005672368399581568
3.5253982566877067,-0.005650650959556412
3.5293056807935077,-0.0056288674283126346
3.5332131048993087,-0.005607044736031345
3.5371205290051098,-0.005585207965788314
3.541027953110911,-0.005563380353553982
3.544935377216712,-0.005541583288193452
3.548842801322513,-0.0055198363114664925
3.552750225428314,-0.005498157118027539
3.556657649534115,-0.005476561555425689
3.560565073639916,-0.0054550636241047085
3.564472497745717,-0.0054336754774030275
3.568379921851518,-0.005412407421553741
3.572287345957319,-0.005391267915684609
3.57619477006312,-0.005370263571818058
3.580102194168921,-0.00534939915487118
3.584009618274722,-0.0053286775826557305
3.587917042380523,-0.005308099925878131
3.591824466486324,-0.005287665408139469
3.595731890592125,-0.005267371405935497
3.599639314697926,-0.005247213448656632
3.6035467388037272,-0.005227185218587958
3.6074541629095283,-0.005207278550909222
3.6113615870153293,-0.005187483433694838
3.6152690111211303,-0.005167788007913884
3.6191764352269313,-0.005148178567430106
3.6230838593327324,-0.0051286395590019115
3.6269912834385334,-0.005109153582282375
3.6308987075443344,-0.005089701389819237
3.6348061316501354,-0.005070261887054903
3.6387135557559365,-0.005050812132326443
3.6426209798617375,-0.005031327336865593
3.6465284039675385,-0.005011780864798754
3.6504358280733396,-0.004992144233146993
3.6543432521791406,-0.00497238711182604
3.6582506762849416,-0.004952477323646292
3.6621581003907426,-0.0049323808443128125
3.6660655244965437,-0.004912061802425329
3.6699729486023447,-0.004891482479478233
3.6738803727081457,-0.004870603309860583
3.6777877968139467,-0.004849390891329146
3.6816952209197478,-0.0048284998684443685
3.685602645025549,-0.0048077703173091835
3.68951006913135,-0.004786228645945264
3.693417493237151,-0.004762739356952392
3.697324917342952,-0.004736005047508449
3.701232341448753,-0.004704566409369424
3.705139765554554,-0.00466680222886941
3.709047189660355,-0.004620929386920603
3.712954613766156,-0.004565002859013306
3.716862037871957,-0.0044969157152159244
3.720769461977758,-0.00441439912017497
3.724676886083559,-0.004315022333115057
3.72858431018936,-0.004196192707838905
3.732491734295161,-0.00405515569272734
3.736399158400962,-0.003888994830739289
3.740306582506763,-0.0036946317594117872
3.744214006612564,-0.003468826210859971
3.7481214307183652,-0.0032081760117770837
3.7520288548241663,-0.002909117083434472
3.7559362789299673,-0.0025679234416815877
3.7598437030357683,-0.002180707196945987
3.7637511271415693,-0.0017434185542333299
3.7676585512473704,-0.001251701791572546
3.7715659753531714,-0.0006987521028156579
3.7754733994589724,-9.218427273019318e-05
3.7793808235647735,0.000555076321794876
3.7832882476705745,0.001230315186958937
3.7871956717763755,0.0019210287120497386
3.7911030958821765,0.002614924169443387
3.7950105199879776,0.003299919714604353
3.7989179440937786,0.003964144386085463
3.8028253681995796,0.004595938105527908
3.8067327923053806,0.005183851677661238
3.8106402164111817,0.005716646790303358
3.8145476405169827,0.006183296014360542
3.8184550646227837,0.006572982803827416
3.8223624887285848,0.006875101495786974
3.826269912834386,0.007079257310410562
3.830177336940187,0.007175266350957896
3.834084761045988,0.00715315560377704
3.837992185151789,0.0070028589783047
3.84189960925759,0.006725776585522226
3.845807033363391,0.0063402394248877406
3.849714457469192,0.005864491221834599
3.853621881574993,0.005315659410660543
3.857529305680794,0.004709755134527696
3.861436729786595,0.004061673245462563
3.865344153892396,0.003385192304356035
3.869251577998197,0.002692974580963383
3.873159002103998,0.0019965660539042647
3.877066426209799,0.0013063964106627178
3.8809738503156,0.0006317790475871615
3.884881274421401,-1.9088930109595684e-05
3.888788698527202,-0.0006391267083503708
3.8926961226330032,-0.0012223697641935878
3.8966035467388043,-0.0017639698658332998
3.9005109708446053,-0.002260195072599159
3.9044183949504063,-0.0027084297349564516
3.9083258190562074,-0.0030676479185040182
3.9122332431620084,-0.0033784011953583537
3.9161406672678094,-0.003740904005095956
3.9200480913736104,-0.004226406679602704
3.9239555154794115,-0.004877194630431537
3.9278629395852125,-0.005706588348802454
3.9317703636910135,-0.006698943405602516
3.9356777877968145,-0.007809650451385836
3.9395852119026156,-0.008965135216373597
3.9434926360084166,-0.010062858510454045
3.9474000601142176,-0.010971316223182467
3.9513074842200187,-0.011631851057915372
3.9552149083258197,-0.01176656547637264
3.9591223324316207,-0.010882020452776942
3.9630297565374217,-0.008652184085167165
3.9669371806432228,-0.004921376514262304
3.970844604749024,0.0002957300765385612
3.974752028854825,0.006814111461156246
3.978659452960626,0.01427839137083146
3.982566877066427,0.022162841494124817
3.986474301172228,0.029771381476916835
3.990381725278029,0.03623757892240796
3.99428914938383,0.04052673927795239
3.998196573489631,0.04198843523829233
4.002103997595432,0.0405593607240476
4.006011421701232,0.036429961323668374
4.009918845807033,0.030037159659645978
4.013826269912834,0.022064355388518676
4.017733694018635,0.013441425200868471
4.021641118124436,0.00529210039192385
4.025548542230237,-0.0017869858338232878
4.029455966336038,-0.007541591182833377
4.033363390441839,-0.011807534357364782
4.03727081454764,-0.01454346511729259
4.041178238653441,-0.015830864280108548
4.045085662759242,-0.015874043720921098
4.0489930868650434,-0.014996367797390645
4.0529005109708445,-0.013528174976271937
4.0568079350766455,-0.01177382339140055
4.0607153591824465,-0.009990055171077789
4.0646227832882476,-0.008364873146280432
4.068530207394049,-0.007017540850660744
4.07243763149985,-0.005998582520546468
4.076345055605651,-0.005289783094940815
4.080252479711452,-0.0048041882155224844
4.084159903817253,-0.0044375609294506286
4.088067327923054,-0.004160924729250057
4.091974752028855,-0.003940298845240224
4.095882176134656,-0.0037473091788430336
4.099789600240457,-0.0035593604623073635
4.103697024346258,-0.0033596362587090646
4.107604448452059,-0.0031370989619509634
4.11151187255786,-0.00288648979676286
4.115419296663661,-0.002608328818701528
4.119326720769462,-0.0023080169254332474
4.123234144875263,-0.001982614449705093
4.127141568981064,-0.001628891314013684
4.131048993086865,-0.0012457027590677633
4.134956417192666,-0.0008323095324803396
4.138863841298467,-0.00038837788876869067
4.142771265404268,8.602041064563991e-05
4.146678689510069,0.0005904080974368413
4.15058611361587,0.0011239023963748357
4.154493537721671,0.001685215025325279
4.158400961827472,0.0022726521952495565
4.162308385933273,0.0028841146102047918
4.166215810039074,0.003517097467343837
4.170123234144875,0.0041697902074341545
4.174030658250676,0.0048424211089210245
4.177938082356477,0.005528595856310093
4.181845506462278,0.006221403105245786
4.185752930568079,0.006914183465099755
4.18966035467388,0.007600529498970863
4.1935677787796815,0.008274285723685203
4.1974752028854825,0.008929548609796082
4.2013826269912835,0.00956066658158403
4.2052900510970845,0.010162240017056796
4.209197475202886,0.010729121247949353
4.213104899308687,0.011256414559723888
4.217012323414488,0.01173947619156981
4.220919747520289,0.012173914336403755
4.22482717162609,0.012555589140869572
4.228734595731891,0.012880612705338332
4.232642019837692,0.013145349083908329
4.236549443943493,0.013346414284405073
4.240456868049294,0.013480676268381302
4.244364292155095,0.01354525495111696
4.248271716260896,0.01353752220161923
4.252179140366697,0.013453655612034456
4.256086564472498,0.013282521863551092
4.259993988578299,0.013028870782109543
4.2639014126841,0.012700641871736825
4.267808836789901,0.012305491922028197
4.271716260895702,0.011850795008147171
4.275623685001503,0.011343642490825513
4.279531109107304,0.010790843016363235
4.283438533213105,0.010198922516628602
4.287345957318906,0.009574124209058121
4.291253381424707,0.008922408596656562
4.295160805530508,0.008249453467996933
4.299068229636309,0.007560653897220507
4.30297565374211,0.00686112224403679
4.306883077847911,0.006155688153723546
4.310790501953712,0.005448898557126797
4.314697926059513,0.004745017670660798
4.318605350165314,0.0040480269963080705
4.322512774271115,0.0033616253216193753
4.326420198376916,0.002689228719713735
4.330327622482717,0.0020339705492784035
4.334235046588518,0.0013987014545689073
4.3381424706943195,0.0007859893654089973
4.3420498948001205,0.00019811949719070535
4.3459573189059215,-0.0003629056491257134
4.3498647430117225,-0.0008953662870117337
4.353772167117524,-0.0013978253443705946
4.357679591223325,-0.0018691284635372844
4.361587015329126,-0.0023084040012785294
4.365494439434927,-0.0027150630287928086
4.369401863540728,-0.003088799331710374
4.373309287646529,-0.0034295894100931923
4.37721671175233,-0.0037377183268490965
4.381124135858131,-0.004014443238770805
4.385031559963932,-0.004261868116293053
4.388938984069733,-0.004482064584330261
4.392846408175534,-0.004677025924570423
4.396753832281335,-0.004848667075475103
4.400661256387136,-0.004998824632279437
4.404568680492937,-0.005129256846992133
4.408476104598738,-0.005241643628395473
4.412383528704539,-0.005337586542045307
4.41629095281034,-0.005418608810271062
4.420198376916141,-0.0054861553121757336
4.424105801021942,-0.0055415925836358884
4.428013225127743,-0.005586208817301668
4.431920649233544,-0.005621213862596784
4.435828073339345,-0.005647739225718521
4.439735497445146,-0.005666838069637735
4.443642921550947,-0.005679485214098854
4.447550345656748,-0.005686577135619878
4.451457769762549,-0.005688931967492381
4.45536519386835,-0.005687289499781501
4.459272617974151,-0.005682311179325961
4.463180042079952,-0.005674580109738045
4.467087466185753,-0.005664601051403613
4.470994890291554,-0.0056528004214821004
4.474902314397355,-0.005639526293906504
4.4788097385031564,-0.005625048399383409
4.4827171626089575,-0.005609558125392952
4.4866245867147585,-0.0055931685161888615
4.4905320108205595,-0.005575914272798424
4.4944394349263606,-0.005557751753022508
4.498346859032162,-0.005538593534766684
4.502254283137963,-0.005518971414633076
4.506161707243764,-0.005499142246513788
4.510069131349565,-0.005479131945879702
4.513976555455366,-0.005458965290835211
4.517883979561167,-0.005438665922118212
4.521791403666968,-0.005418256343100114
4.525698827772769,-0.00539775791978583
4.52960625187857,-0.005377190880813785
4.533513675984371,-0.005356574317455908
4.537421100090172,-0.005335926183617639
4.541328524195973,-0.0053152632958379225
4.545235948301774,-0.005294601333289214
4.549143372407575,-0.005273954837777477
4.553050796513376,-0.005253337213742179
4.556958220619177,-0.005232760728256299
4.560865644724978,-0.005212236511026325
4.564773068830779,-0.005191774554392248
4.56868049293658,-0.005171383713327571
4.572587917042381,-0.005151071705439304
4.576495341148182,-0.005130845110967964
4.580402765253983,-0.005110709372787576
4.584310189359784,-0.005090668796405674
4.588217613465585,-0.005070726549963298
4.592125037571386,-0.005050884664234999
4.596032461677187,-0.005031144032628832
4.599939885782988,-0.0050115044111863636
4.603847309888789,-0.004991964418582665
4.60775473399459,-0.0049725215361263175
4.611662158100391,-0.0049531721077594095
4.615569582206192,-0.004933911340057538
4.619477006311993,-0.004914733302229806
4.6233844304177945,-0.004895630926118828
4.6272918545235955,-0.004876596006200722
4.6311992786293965,-0.004857619199585116
4.6351067027351975,-0.004838690026015147
4.639014126840999,-0.004819796228788641
4.6429215509468,-0.004800469533142246
4.646828975052601,-0.004780628325519389
4.650736399158402,-0.0047606572279305995
4.654643823264203,-0.004740837834038606
4.658551247370004,-0.0047213487091583295
4.662458671475805,-0.004702265390256884
4.666366095581606,-0.00468356038595358
4.670273519687406,-0.004665103176519924
4.674180943793207,-0.004646660213879607
4.678088367899008,-0.004627894921608526
4.681995792004809,-0.004608367694934767
4.68590321611061,-0.004587535900738611
4.689810640216411,-0.004564753877552532
4.693718064322212,-0.0045392729355612
4.697625488428013,-0.00451024135660148
4.701532912533814,-0.004476704394162429
4.705440336639615,-0.004437604273385298
4.709347760745416,-0.004391780191063536
4.713255184851217,-0.004337968315642782
4.717162608957018,-0.004278983900482717
4.721070033062819,-0.004213863323428998
4.72497745716862,-0.004134918097272335
4.728884881274421,-0.004035266179434785
4.732792305380222,-0.0039088405660613465
4.736699729486023,-0.003750389292019958
4.740607153591824,-0.003555475430901497
4.744514577697625,-0.0033204770950197825
4.748422001803426,-0.0030425874354115716
4.7523294259092275,-0.002719814641836564
4.7562368500150285,-0.002350981942777397
4.7601442741208295,-0.0019357276054396497
4.7640516982266305,-0.0014745049357518408
4.767959122332432,-0.0009685822783654287
4.771866546438233,-0.0004200430166548105
4.775773970544034,0.00016821442728267178
4.779681394649835,0.0007924765926267431
4.783588818755636,0.0014482149798341806
4.787496242861437,0.002130086050638833
4.791403666967238,0.0028331974883093105
4.795311091073039,0.003543052951670193
4.79921851517884,0.004238087867515309
4.803125939284641,0.004898876179047872
4.807033363390442,0.00550818761371561
4.810940787496243,0.006050987683210786
4.814848211602044,0.006514437683470183
4.818755635707845,0.00688789469467511
4.822663059813646,0.007162911581251401
4.826570483919447,0.007333236991869416
4.830477908025248,0.007394815359444043
4.834385332131049,0.007345786901134686
4.83829275623685,0.007186487618345286
4.842200180342651,0.006919449296724302
4.846107604448452,0.006549399506164717
4.850015028554253,0.006081418744616116
4.853922452660054,0.005525930556267546
4.857829876765855,0.004903894714027801
4.861737300871656,0.004234818727683795
4.865644724977457,0.0035362999271372595
4.869552149083258,0.002824025462404759
4.873459573189059,0.0021117723036176766
4.87736699729486,0.0014114072410222238
4.881274421400661,0.000732886884979432
4.885181845506462,8.425766596516487e-05
4.889089269612263,-0.0005283441654298929
4.8929966937180644,-0.0011006925385002352
4.8969041178238655,-0.0016304715624255268
4.9008115419296665,-0.002117275526270606
4.9047189660354675,-0.002562608898985492
4.908626390141269,-0.0029641837675618288
4.91253381424707,-0.003332581407123366
4.916441238352871,-0.0037375866201305426
4.920348662458672,-0.004236100854967145
4.924256086564473,-0.00486563214141811
4.928163510670274,-0.005644295090669516
4.932070934776075,-0.006570810895308591
4.935978358881876,-0.007624507329323712
4.939885782987677,-0.008765318748104396
4.943793207093478,-0.009937595984115222
4.947700631199279,-0.010917441632984788
4.95160805530508,-0.011388170541677874
4.955515479410881,-0.011083853939090997
4.959422903516682,-0.009790680916806216
4.963330327622483,-0.007346958429091125
4.967237751728284,-0.003643111292898859
4.971145175834085,0.0013783178121319125
4.975052599939886,0.007726749125295622
4.978960024045687,0.015389960513776559
4.982867448151488,0.02346369691567385
4.986774872257289,0.03088943215449061
4.99068229636309,0.0368129019961608
4.994589720468891,0.04058410414904921
4.998497144574692,0.0417572982639515
5.002404568680493,0.040091005934094134
5.006311992786294,0.035551487463902874
5.010219416892095,0.028652962798762636
5.014126840997896,0.0204943183653041
5.018034265103697,0.012034254772972656
5.021941689209498,0.004033592550496817
5.025849113315299,-0.0029447278541117547
5.0297565374211,-0.008535646073558223
5.033663961526901,-0.012571981821264636
5.0375713856327025,-0.015081744403275666
5.0414788097385035,-0.016091162653028068
5.0453862338443045,-0.015880356043783777
5.0492936579501055,-0.014844660455743999
5.053201082055907,-0.013320831100665391
5.057108506161708,-0.011587042521860073
5.061015930267509,-0.009862888594195618
5.06492335437331,-0.008309382524095046
5.068830778479111,-0.007028956849536841
5.072738202584912,-0.006065463440054942
5.076645626690713,-0.005404173496738723
5.080553050796514,-0.0049717775522330615
5.084460474902315,-0.0046427430598427665
5.088367899008116,-0.00436960956978668
5.092275323113917,-0.00414215716493955
5.096182747219718,-0.003939797140906206
5.100090171325519,-0.0037451329233002505
5.10399759543132,-0.0035439600677440674
5.107905019537121,-0.0033252662598688178
5.111812443642922,-0.0030812313153144393
5.115719867748723,-0.002807227179729653
5.119627291854524,-0.0025018179287719516
5.123534715960325,-0.002166759768107615
5.127442140066126,-0.0018065956953786902
5.131349564171927,-0.0014193469474328706
5.135256988277728,-0.0010022874323156491
5.139164412383529,-0.0005548566842254324
5.14307183648933,-7.696133437598562e-05
5.146979260595131,0.000431024889003569
5.150886684700932,0.0009682611606687528
5.154794108806733,0.0015334395583597288
5.158701532912534,0.0021247850628013003
5.162608957018335,0.002740055557702916
5.166516381124136,0.0033765418297586683
5.170423805229937,0.004031067568647286
5.174331229335738,0.004699989367032143
5.178238653441539,0.005379196720561264
5.1821460775473405,0.006064112027867302
5.1860535016531415,0.006751483235509187
5.1899609257589425,0.007438847654110188
5.1938683498647435,0.008118075603018048
5.197775773970545,0.00878130053025231
5.201683198076346,0.009421187541461087
5.205590622182147,0.010030933399921078
5.209498046287948,0.010604266526537552
5.213405470393749,0.01113544699984436
5.21731289449955,0.011619266556003927
5.221220318605351,0.012051048588807258
5.225127742711152,0.012426648149673928
5.229035166816953,0.012742451947652101
5.232942590922754,0.012995378349418506
5.236850015028555,0.013182877379278458
5.240757439134356,0.013302930719165846
5.244664863240157,0.013354051708643132
5.248572287345958,0.013335285344901363
5.252479711451759,0.013246208282760156
5.25638713555756,0.013086928834667711
5.260294559663361,0.012858086970700799
5.264201983769162,0.01256011010005912
5.268109407874963,0.012188809884893504
5.272016831980764,0.011750056819909205
5.275924256086565,0.011252003441398501
5.279831680192366,0.010702459092186284
5.283739104298167,0.010108889921630062
5.287646528403968,0.009478418885619946
5.291553952509769,0.008817825746578668
5.29546137661557,0.008133547073461572
5.299368800721371,0.007431676241756607
5.303276224827172,0.006717963433484344
5.307183648932973,0.005997815637197959
5.311091073038774,0.005276296647983243
5.314998497144575,0.0045581270674586016
5.318905921250376,0.003847684303775049
5.3228133453561775,0.003149002571616214
5.3267207694619785,0.0024657728921983393
5.3306281935677795,0.0018013430932702756
5.3345356176735805,0.0011587178091134898
5.338443041779382,0.0005405584805420575
5.342350465885183,-5.081664509732492e-05
5.346257889990984,-0.0006134325139253629
5.350165314096785,-0.001145657265530134
5.354072738202586,-0.0016462022329671137
5.357980162308387,-0.0021141219427591625
5.361887586414188,-0.0025488141148965245
5.365795010519989,-0.002950019662836839
5.36970243462579,-0.0033178226935051333
5.373609858731591,-0.0036521078927062205
5.377517282837392,-0.003953504976603711
5.381424706943193,-0.004224155318618356
5.385332131048994,-0.004466144515964749
5.389239555154795,-0.004681483119330769
5.393146979260596,-0.004872106632877583
5.397054403366397,-0.005039875514239637
5.400961827472198,-0.005186575174524668
5.404869251577999,-0.005313915978313695
5.4087766756838,-0.005423533243661021
5.412684099789601,-0.005516987242094238
5.416591523895402,-0.005595763198614219
5.420498948001203,-0.005661271291695124
5.424406372107004,-0.005714846653284399
5.428313796212805,-0.0057577493688027725
5.432221220318606,-0.00579116447714426
5.436128644424407,-0.005816201970676161
5.440036068530208,-0.005833896795239064
5.443943492636009,-0.005845208850146834
5.44785091674181,-0.00585102298818663
5.451758340847611,-0.005852149015618888
5.455665764953412,-0.00584932169217734
5.459573189059213,-0.00584320073106899
5.463480613165014,-0.005834370798974136
5.4673880372708155,-0.00582334151604636
5.4712954613766165,-0.005810547455912523
5.4752028854824175,-0.005796348145672779
5.4791103095882185,-0.005781028065900566
5.48301773369402,-0.0057647966506426
5.486925157799821,-0.005747788287418891
5.490832581905622,-0.005730062317222725
5.494740006011423,-0.005711603034520683
5.498647430117224,-0.005692319687252621
5.502554854223025,-0.005672105087000112
5.506462278328826,-0.005651530697140744
5.510369702434627,-0.005630812579095621
5.514277126540428,-0.005609971397549684
5.518184550646229,-0.005589026892055971
5.52209197475203,-0.005567997877035619
5.525999398857831,-0.0055469022417778645
5.529906822963632,-0.0055257569504400415
5.533814247069433,-0.005504578042047585
5.537721671175234,-0.005483380630494025
5.541629095281035,-0.005462178904540995
5.545536519386836,-0.005440986127818223
5.549443943492637,-0.005419814638823539
5.553351367598438,-0.00539867585092287
5.557258791704239,-0.005377580252350241
5.56116621581004,-0.005356537406207778
5.565073639915841,-0.005335555950465705
5.568981064021642,-0.005314643597962343
5.572888488127443,-0.005293807136404115
5.576795912233244,-0.0052730524283655395
5.580703336339045,-0.005252384411289236
5.584610760444846,-0.005231807097485921
5.588518184550647,-0.005211323574134412
5.592425608656448,-0.005190936003281623
5.596333032762249,-0.005170645621842569
5.60024045686805,-0.005150452741600362
5.604147880973851,-0.005130356749206213
5.608055305079652,-0.0051103561061794315
5.6119627291854535,-0.005090448348907427
5.6158701532912545,-0.005070630088645708
5.6197775773970555,-0.00505089701151788
5.6236850015028566,-0.005031243878515648
5.627592425608658,-0.005011664525498815
5.631499849714459,-0.0049921518631952854
5.63540727382026,-0.00497269787720106
5.639314697926061,-0.004953293627980239
5.643222122031862,-0.0049339292508650216
5.647129546137663,-0.004914395458182414
5.651036970243464,-0.0048939322608434165
5.654944394349265,-0.004872971940270814
5.658851818455066,-0.00485197179201935
5.662759242560867,-0.004831242098093904
5.666666666666668,-0.004810946126949483
5.670574090772467,-0.0047911001334912376
5.674481514878268,-0.004771573359074421
5.678388938984069,-0.004752088031504447
5.68229636308987,-0.004732219365036853
5.686203787195671,-0.004711395560377306
5.690111211301472,-0.004688897804681608
5.694018635407273,-0.004663860271555689
5.697926059513074,-0.004635270121055614
5.701833483618875,-0.004601967499687578
5.705740907724676,-0.00456264554040791
5.709648331830477,-0.004515850362623069
5.713555755936278,-0.004459981072189646
5.717463180042079,-0.0043932897614143655
5.7213706041478805,-0.004313908530207441
5.7252780282536815,-0.004222971248022084
5.7291854523594825,-0.004116407728239054
5.7330928764652835,-0.0039869035326227965
5.737000300571085,-0.0038280906845042217
5.740907724676886,-0.003634547668780709
5.744815148782687,-0.0034017994319161062
5.748722572888488,-0.00312631738194073
5.752629996994289,-0.0028055193884513638
5.75653742110009,-0.0024377697826112607
5.760444845205891,-0.0020223793571501414
5.764352269311692,-0.0015596053663641954
5.768259693417493,-0.0010506515261160792
5.772167117523294,-0.0004976680138349199
5.776074541629095,9.624853148368882e-05
5.779981965734896,0.0007270550092776844
5.783889389840697,0.001389761857418537
5.787796813946498,0.0020801281356115655
5.791704238052299,0.002793656924589801
5.7956116621581,0.0035090121798435165
5.799519086263901,0.004205037107719457
5.803426510369702,0.00486279149080809
5.807333934475503,0.00546555168794361
5.811241358581304,0.0059988106342039335
5.815148782687105,0.006450277840910703
5.819056206792906,0.006809879395629285
5.822963630898707,0.007069757962168771
5.826871055004508,0.007224272780581978
5.830778479110309,0.0072699996671654445
5.83468590321611,0.007205731014459437
5.838593327321911,0.0070324757912479455
5.842500751427712,0.0067534595425586845
5.846408175533513,0.006374124389663092
5.850315599639314,0.00590212903007633
5.854223023745115,0.005345038924826426
5.858130447850916,0.004718833290456718
5.862037871956717,0.004044501115810823
5.8659452960625185,0.0033408555606437274
5.8698527201683195,0.0026245309575779682
5.8737601442741205,0.0019099828121036475
5.8776675683799215,0.0012094878025784243
5.881574992485723,0.000533143780227517
5.885482416591524,-0.0001111302308562951
5.889389840697325,-0.0007175940337126752
5.893297264803126,-0.001282686258513725
5.897204688908927,-0.0018050243625639907
5.901112113014728,-0.0022854046303004538
5.905019537120529,-0.0027268021732925404
5.90892696122633,-0.0031320114846871278
5.912834385332131,-0.00350305816519647
5.916741809437932,-0.003908279237900034
5.920649233543733,-0.00441041806994237
5.924556657649534,-0.005049907770046304
5.928464081755335,-0.005844871188512938
5.932371505861136,-0.006791120917221645
5.936278929966937,-0.007862159289630077
5.940186354072738,-0.009009178380774158
5.944093778178539,-0.010163621488659878
5.94800120228434,-0.011094857263512952
5.951908626390141,-0.01149189964224877
5.955816050495942,-0.011093556036521379
5.959723474601743,-0.009689443570178613
5.963630898707544,-0.007119989079262095
5.967538322813345,-0.0032764291120072385
5.971445746919146,0.0018991900711567526
5.975353171024947,0.008442632323854246
5.979260595130748,0.016222839067760293
5.983168019236549,0.024230406629083268
5.98707544334235,0.031482038125334136
5.990982867448151,0.0371763907604296
5.994890291553952,0.040694075824692075
5.998797715659753,0.04159765869484969
6.002705139765554,0.03963165883403634
6.0066125638713554,0.034752133083289866
6.0105199879771565,0.02764386437667924
6.0144274120829575,0.01941354306259259
6.0183348361887585,0.010986962986298511
6.02224226029456,0.0030942316529110683
6.026149684400361,-0.003730229772610158
6.030057108506162,-0.009147686465460173
6.033964532611963,-0.01301508994098844
6.037871956717764,-0.015342016137915896
6.041779380823565,-0.0161702947449422
6.045686804929366,-0.015875409117459507
6.049594229035167,-0.014825960666281937
6.053501653140968,-0.013334971707467034
6.057409077246769,-0.011659885462315753
6.06131650135257,-0.01000256605737248
6.065223925458371,-0.008509298524424985
6.069131349564172,-0.007270788800504505
6.073038773669973,-0.006322163727885665
6.076946197775774,-0.005642971054086517
6.080853621881575,-0.005160555315404476
6.084761045987376,-0.0048098139693360815
6.088668470093177,-0.0045481348091665945
6.092575894198978,-0.00433939628398692
6.096483318304779,-0.0041539242662399665
6.10039074241058,-0.003968492051720652
6.104298166516381,-0.003766320359575903
6.108205590622182,-0.003537077332304648
6.112113014727983,-0.0032768785357578274
6.116020438833784,-0.002988286959138388
6.119927862939585,-0.0026792757085542834
6.123835287045386,-0.002345943722043515
6.127742711151187,-0.0019841041474703332
6.131650135256988,-0.0015926492645727984
6.135557559362789,-0.0011708883349966516
6.13946498346859,-0.0007185476022953143
6.143372407574391,-0.00023577029192989188
6.147279831680192,0.00027688338873083215
6.1511872557859935,0.0008184362504103917
6.1550946798917945,0.001387494121924637
6.1590021039975955,0.00198224585018174
6.1629095281033965,0.0026004633001821893
6.166816952209198,0.0032395013550187957
6.170724376314999,0.003896466431226908
6.1746318004208,0.004571575586968166
6.178539224526601,0.005259934853029053
6.182446648632402,0.005954425253150843
6.186354072738203,0.006648204057557922
6.190261496844004,0.007334704782957794
6.194168920949805,0.008007637192541071
6.198076345055606,0.008660987295981484
6.201983769161407,0.009289017349435874
6.205891193267208,0.009886265855544196
6.209798617373009,0.010447547563429522
6.21370604147881,0.010967953468698034
6.217613465584611,0.011442850813439025
6.221520889690412,0.011867883086224912
6.225428313796213,0.012238970022111216
6.229335737902014,0.012552307602636575
6.233243162007815,0.01280436805582274
6.237150586113616,0.012991899856174575
6.241058010219417,0.013111927724680063
6.244965434325218,0.013161752628810294
6.248872858431019,0.013138951782519472
6.25278028253682,0.0130384706481422
6.256687706642621,0.012850613083293817
6.260595130748422,0.012581929347378866
6.264502554854223,0.012240296645257848
6.268409978960024,0.011833309908140506
6.272317403065825,0.011368281793585823
6.276224827171626,0.010852242685502023
6.280132251277427,0.010291940694146568
6.284039675383228,0.009693841656126162
6.287947099489029,0.009064129134396751
6.29185452359483,0.008408704418263514
6.2957619477006315,0.007733186523380879
6.2996693718064325,0.007042912191752506
6.3035767959122335,0.006342935891731302
6.3074842200180345,0.005638029818019408
6.311391644123836,0.004932683891668212
6.315299068229637,0.004231105760078336
6.319206492335438,0.0035372207969996457
6.323113916441239,0.002854672102531243
6.32702134054704,0.0021868205031214775
6.330928764652841,0.001536744551567928
6.334836188758642,0.0009072405270174177
6.338743612864443,0.000300822434966019
6.342651036970244,-0.0002802779927409717
6.346558461076045,-0.0008341112979089946
6.350465885181846,-0.001359010295994282
6.354373309287647,-0.0018535900761037921
6.358280733393448,-0.0023167480009952807
6.362188157499249,-0.002747663707077231
6.36609558160505,-0.003145799104408882
6.370003005710851,-0.00351089837670027
6.373910429816652,-0.003842987981312173
6.377817853922453,-0.00414249952808439
6.381725278028254,-0.004411080657508007
6.385632702134055,-0.004650858033641014
6.389540126239856,-0.004863883763186154
6.393447550345657,-0.0050521316717470925
6.397354974451458,-0.005217497303828421
6.401262398557259,-0.005361797922835655
6.40516982266306,-0.0054867725110752325
6.409077246768861,-0.005594081769754519
6.412984670874662,-0.005685308118981802
6.416892094980463,-0.0057619556977662936
6.420799519086264,-0.005825450364018131
6.424706943192065,-0.005877139694548377
6.428614367297866,-0.005918292985069016
6.432521791403667,-0.005950101250192959
6.4364292155094684,-0.005973677223434039
6.4403366396152695,-0.005990055357207015
6.4442440637210705,-0.00600019182282757
6.4481514878268715,-0.0060049645105123145
6.452058911932673,-0.006005173029378776
6.455966336038474,-0.006001538707445412
6.459873760144275,-0.005994704591631604
6.463781184250076,-0.005985235447757656
6.467688608355877,-0.005973617760544798
6.471596032461678,-0.0059602597336151815
6.475503456567479,-0.005945491289491888
6.47941088067328,-0.0059295640695989195
6.483318304779081,-0.005912651434261194
6.487225728884882,-0.005894848462704577
6.491133152990683,-0.00587617195305583
6.495040577096484,-0.005856560422342667
6.498948001202285,-0.00583603107647399
6.502855425308086,-0.005815195694887168
6.506762849413887,-0.00579416146462654
6.510670273519688,-0.005772954240858604
6.514577697625489,-0.0057515987328547085
6.51848512173129,-0.005730118503991054
6.522392545837091,-0.005708535971748693
6.526299969942892,-0.005686872407713528
6.530207394048693,-0.005665147937576313
6.534114818154494,-0.0056433815411326554
6.538022242260295,-0.005621591052283009
6.541929666366096,-0.005599793159032683
6.545837090471897,-0.005578003403491837
6.549744514577698,-0.005556236181875481
6.553651938683499,-0.005534504744503475
6.5575593627893,-0.005512821195800534
6.561466786895101,-0.00549119649429622
6.565374211000902,-0.005469640452624948
6.569281635106703,-0.005448161737525986
6.573189059212504,-0.00542676786984345
6.577096483318305,-0.005405465224526309
6.5810039074241065,-0.005384259030628383
6.5849113315299075,-0.005363153371308344
6.5888187556357085,-0.005342151183829713
6.5927261797415095,-0.005321254259560863
6.596633603847311,-0.005300463243975021
6.600541027953112,-0.005279777636650261
6.604448452058913,-0.005259195791269511
6.608355876164714,-0.005238714915620549
6.612263300270515,-0.005218331071596004
6.616170724376316,-0.005198039175193358
6.620078148482117,-0.005177832996514942
6.623985572587918,-0.00515770515976794
6.627892996693719,-0.005137647143264384
6.63180042079952,-0.0051176492794211634
6.635707844905321,-0.005097700754760012
6.639615269011122,-0.005077772951626472
6.643522693116923,-0.0050573297668762875
6.647430117222724,-0.005036446593730153
6.651337541328525,-0.005015489306991606
6.655244965434326,-0.004994720449842337
6.659152389540127,-0.004974299233842185
6.663059813645928,-0.00495428153892914
6.666967237751729,-0.004934619913419342
6.67087466185753,-0.004915163574007084
6.674782085963331,-0.004895658405764806
6.678689510069132,-0.004875746962143101
6.682596934174933,-0.004854968464970711
6.686504358280734,-0.004832758804454529
6.690411782386535,-0.004808450539179599
6.694319206492336,-0.004781272896109115
6.698226630598137,-0.004750351770584422
6.702134054703938,-0.004714709726325014
6.706041478809739,-0.0046732659954285384
6.70994890291554,-0.004624836478370789
6.713856327021341,-0.004568357778950089
6.717763751127142,-0.004507781693244082
6.721671175232943,-0.004439041520535066
6.7255785993387445,-0.004354728442996075
6.7294860234445455,-0.004248233293434984
6.7333934475503465,-0.004113746555294516
6.7373008716561475,-0.003946258362652235
6.741208295761949,-0.00374155850022055
6.74511571986775,-0.003496236403346716
6.749023143973551,-0.00320768115801283
6.752930568079352,-0.002874081500835834
6.756837992185153,-0.0024944258190675137
6.760745416290954,-0.0020685021505945003
6.764652840396755,-0.0015968981839382676
6.768560264502556,-0.0010810012582551346
6.772467688608357,-0.0005229983633362667
6.776375112714158,7.412386039233349e-05
6.780282536819959,0.0007065791218698108
6.78418996092576,0.001369781479400473
6.788097385031561,0.0020585113774359083
6.792004809137362,0.0027667167382124684
6.795912233243163,0.0034754433909557165
6.799819657348964,0.004164110454611804
6.803727081454765,0.004814237869286986
6.807634505560566,0.0054094463962476155
6.811541929666367,0.00593545761792015
6.815449353772168,0.0063800939378911466
6.819356777877969,0.006733278580907265
6.82326420198377,0.006987035592875264
6.827171626089571,0.007135489840862006
6.831079050195372,0.007174867013094455
6.834986474301173,0.007103493618959675
6.838893898406974,0.0069217969890048294
6.842801322512775,0.006632305274937188
6.846708746618576,0.006239217830348561
6.850616170724377,0.005747960455873087
6.854523594830178,0.005176962671663904
6.858431018935979,0.004545818877639869
6.86233844304178,0.0038724608581261226
6.8662458671475814,0.0031731577818540926
6.8701532912533825,0.002462516201961489
6.8740607153591835,0.0017534800559923071
6.8779681394649845,0.0010573306658968242
6.881875563570786,0.00038368673803160485
6.885782987676587,-0.0002594956368405033
6.889690411782388,-0.0008659229835503704
6.893597835888189,-0.0014309644425225792
6.89750525999399,-0.0019516517697754296
6.901412684099791,-0.0024266793369209384
6.905320108205592,-0.0028452103786140307
6.909227532311393,-0.00316908994486021
6.913134956417194,-0.003488920477289305
6.917042380522995,-0.0038915178089260647
6.920949804628796,-0.004435544005601579
6.924857228734597,-0.00515150736595327
6.928764652840398,-0.006041762421424902
6.932672076946199,-0.007080509936266569
6.936579501052,-0.008213796907534716
6.940486925157801,-0.009359516565092105
6.944394349263602,-0.010407408371607849
6.948301773369403,-0.011226493556667631
6.952209197475204,-0.011721340649724446
6.956116621581005,-0.011467294564565958
6.960024045686806,-0.01006969402433354
6.963931469792607,-0.007290666070757684
6.967838893898408,-0.0030491260641580115
6.971746318004209,0.002579222316556745
6.97565374211001,0.009361887073888735
6.979561166215811,0.01690958789175096
6.983468590321612,0.024676256135467357
6.987376014427413,0.03195655081834097
6.991283438533214,0.037792105257713454
6.995190862639015,0.04128733051454482
6.999098286744816,0.041929300723018786
7.003005710850616,0.039580895540881594
7.006913134956417,0.034480800149436316
7.010820559062218,0.02724350525354939
7.014727983168019,0.018859307081647708
7.01863540727382,0.010456249310636549
7.022542831379621,0.00265901743951673
7.026450255485422,-0.004054471467987292
7.030357679591223,-0.009365989359199713
7.034265103697024,-0.013118934495002114
7.038172527802825,-0.015318331449833446
7.042079951908626,-0.016130831111690024
7.045987376014427,-0.015829484938395193
7.049894800120228,-0.014689620984227186
7.053802224226029,-0.013077321601447395
7.05770964833183,-0.01129424943901795
7.061617072437631,-0.00956975580782831
7.065524496543432,-0.008060880680695269
7.069431920649233,-0.006852352692362951
7.073339344755034,-0.005956589139502802
7.077246768860835,-0.005314354711180638
7.081154192966636,-0.004846128964660546
7.085061617072437,-0.004505354059410405
7.088969041178238,-0.004250827553511912
7.092876465284039,-0.004047452124790923
7.09678388938984,-0.0038662355708174454
7.100691313495641,-0.0036842908089056462
7.104598737601442,-0.003484835876113845
7.108506161707243,-0.0032571939292445245
7.112413585813044,-0.002996793244844313
7.116321009918845,-0.002705167219204005
7.1202284340246464,-0.002389954368358546
7.1241358581304475,-0.00205429630126133
7.1280432822362485,-0.0016902130302903966
7.1319507063420495,-0.001296528017063368
7.1358581304478506,-0.0008725291908940787
7.139765554553652,-0.00041793657819133665
7.143672978659453,6.709769754107428e-05
7.147580402765254,0.0005819894157043969
7.151487826871055,0.001125722258604901
7.155395250976856,0.001696847811453879
7.159302675082657,0.0022934855623676525
7.163210099188458,0.002913322902367567
7.167117523294259,0.0035536151253799937
7.17102494740006,0.004211185428236329
7.174932371505861,0.00488385911823114
7.178839795611662,0.005570710349748658
7.182747219717463,0.006264559908913118
7.186654643823264,0.006958105487613548
7.190562067929065,0.0076443797347468204
7.194469492034866,0.008316750256217652
7.198376916140667,0.008968919614938613
7.202284340246468,0.009594925330830104
7.206191764352269,0.010189139880820385
7.21009918845807,0.010746270698845553
7.214006612563871,0.011261360175849555
7.217914036669672,0.011729785659784178
7.221821460775473,0.012147259455609061
7.225728884881274,0.012509828825291683
7.229636308987075,0.012813875987807371
7.233543733092876,0.0130561181191393
7.237451157198677,0.013233607352278479
7.241358581304478,0.013343730777223775
7.245266005410279,0.013384210440981897
7.24917342951608,0.013353103347567398
7.253080853621881,0.013248801458002672
7.256988277727682,0.013066298871776714
7.260895701833483,0.012805965081995845
7.2648031259392845,0.01247466533268881
7.2687105500450855,0.012079078903478313
7.2726179741508865,0.011625698621452409
7.2765253982566875,0.011120830861164503
7.280432822362489,0.010570595544633347
7.28434024646829,0.009980926141343053
7.288247670574091,0.009357569668243072
7.292155094679892,0.008706086689748208
7.296062518785693,0.008031851317738621
7.299969942891494,0.007340051211559815
7.303877366997295,0.0066356875780226475
7.307784791103096,0.005923575171403323
7.311692215208897,0.005208342293443403
7.315599639314698,0.0044944307933497876
7.319507063420499,0.0037860960677947413
7.3234144875263,0.00308740706091587
7.327321911632101,0.002402246264316125
7.331229335737902,0.0017343097170638214
7.335136759843703,0.0010871070056926186
7.339044183949504,0.00046396126420151715
7.342951608055305,-0.00013199082594511635
7.346859032161106,-0.0006977990358175735
7.350766456266907,-0.0012306995890208096
7.354673880372708,-0.001728115161694391
7.358581304478509,-0.002188011988476019
7.36248872858431,-0.0026111800774654323
7.366396152690111,-0.0029994024159486748
7.370303576795912,-0.0033544095880303666
7.374211000901713,-0.003677899576221982
7.378118425007514,-0.003971537761441854
7.382025849113315,-0.004236956923015168
7.385933273219116,-0.00447575723867397
7.389840697324917,-0.004689506284557155
7.393748121430718,-0.004879739035210481
7.397655545536519,-0.005047957863586559
7.40156296964232,-0.005195632541044853
7.405470393748121,-0.005324200237351686
7.4093778178539225,-0.00543506552068024
7.4132852419597235,-0.005529600357610545
7.4171926660655245,-0.0056091441131294936
7.4211000901713255,-0.005675003550630831
7.425007514277127,-0.0057284528319151585
7.428914938382928,-0.005770733517189933
7.432822362488729,-0.005803054565069472
7.43672978659453,-0.005826592332574942
7.440637210700331,-0.005842490575134368
7.444544634806132,-0.005851860446582633
7.448452058911933,-0.005855780499161473
7.452359483017734,-0.005855296683519478
7.456266907123535,-0.005851422348712105
7.460174331229336,-0.005845099049153213
7.464081755335137,-0.0058365224084740075
7.467989179440938,-0.005825811635853309
7.471896603546739,-0.00581320077318233
7.47580402765254,-0.0057989112746865985
7.479711451758341,-0.005783152006925963
7.483618875864142,-0.005766119248794593
7.487526299969943,-0.005747996691520975
7.491433724075744,-0.005728955438667919
7.495341148181545,-0.0057091540061325495
7.499248572287346,-0.0056887383221463144
7.503155996393147,-0.0056678417272749805
7.507063420498948,-0.005646584974418632
7.510970844604749,-0.005625076228811675
7.51487826871055,-0.005603411068022835
7.518785692816351,-0.005581672481955154
7.522693116922152,-0.005559930872845998
7.526600541027953,-0.005538244055267049
7.530507965133754,-0.005516657256124311
7.534415389239555,-0.005495203114658106
7.538322813345356,-0.005473901682443076
7.542230237451157,-0.005452760423388182
7.546137661556958,-0.005431774213736707
7.5500450856627594,-0.005410925342066249
7.5539525097685605,-0.00539018350928873
7.5578599338743615,-0.005369505828650388
7.5617673579801625,-0.005348836825731784
7.565674782085964,-0.005328108438447796
7.569582206191765,-0.005307178328875241
7.573489630297566,-0.0052860056898028284
7.577397054403367,-0.005264691023844476
7.581304478509168,-0.005243325340357474
7.585211902614969,-0.005221989834288708
7.58911932672077,-0.005200755886174663
7.593026750826571,-0.00517968506214142
7.596934174932372,-0.00515882911390466
7.600841599038173,-0.005138229978769661
7.604749023143974,-0.0051179197796312964
7.608656447249775,-0.00509792082497404
7.612563871355576,-0.005078245608871963
7.616471295461377,-0.005058896810988732
7.620378719567178,-0.005039867296577616
7.624286143672979,-0.005021140116481476
7.62819356777878,-0.005002688507132775
7.632100991884581,-0.004984475890553572
7.636008415990382,-0.004966455874355524
7.639915840096183,-0.004948572251739886
7.643823264201984,-0.004930759001497509
7.647730688307785,-0.004912940288008845
7.651638112413586,-0.004895030461243941
7.655545536519387,-0.004876934056762442
7.659452960625188,-0.004858545795713593
7.663360384730989,-0.004839750584836233
7.66726780883679,-0.004820423516458801
7.671175232942591,-0.004800429868499335
7.675082657048392,-0.0047796251044654675
7.678990081154193,-0.004757854873454431
7.682897505259994,-0.004734955010153055
7.686804929365795,-0.004710751534837768
7.690712353471596,-0.004685060653374593
7.6946197775773975,-0.00465785249954932
7.6985272016831985,-0.0046286609780091855
7.7024346257889995,-0.004595712203390638
7.7063420498948005,-0.004557026732706594
7.710249474000602,-0.00451047101944481
7.714156898106403,-0.004453757413567878
7.718064322212204,-0.004384444161513228
7.721971746318005,-0.004299935406193127
7.725879170423806,-0.004197481186994681
7.729786594529607,-0.004074177439779831
7.733694018635408,-0.003926965996885355
7.737601442741209,-0.0037526345871228715
7.74150886684701,-0.003547816835778834
7.745416290952811,-0.0033089922646145323
7.749323715058612,-0.0030324862918660964
7.753231139164413,-0.0027144702322444915
7.757138563270214,-0.002350961296935522
7.761045987376015,-0.001937822593599827
7.764953411481816,-0.0014684113751718157
7.768860835587617,-0.0009390620477555432
7.772768259693418,-0.00035888175592466067
7.776675683799219,0.0002623105443019325
7.78058310790502,0.0009144792680251183
7.784490532010821,0.001587372201465561
7.788397956116622,0.002270520501963705
7.792305380222423,0.002953238697979776
7.796212804328224,0.003624624689093782
7.800120228434025,0.0042735597460055105
7.804027652539826,0.004888708510534532
7.807935076645627,0.005458518995620201
7.811842500751428,0.0059712225853216444
7.815749924857229,0.0064148340348177835
7.81965734896303,0.006777151470407309
7.823564773068831,0.0070457563895087
7.827472197174632,0.00720801366066021
7.831379621280433,0.007251071523519885
7.835287045386234,0.007162699871606165
7.8391944694920355,0.006947226906189718
7.8431018935978365,0.006620998334416326
7.8470093177036375,0.006199891179803831
7.8509167418094385,0.005699098179035741
7.85482416591524,0.0051331277819612366
7.858731590021041,0.0045158041515951635
7.862639014126842,0.0038602671641180413
7.866546438232643,0.003178972408876054
7.870453862338444,0.002483691188381062
7.874361286444245,0.0017855105183105825
7.878268710550046,0.001094833127507815
7.882176134655847,0.0004213774579816202
7.886083558761648,-0.00022582233509346825
7.889990982867449,-0.0008384163833772516
7.89389840697325,-0.0014087391053638557
7.897805831079051,-0.0019298092063817444
7.901713255184852,-0.002391333473926348
7.905620679290653,-0.002783150280935485
7.909528103396454,-0.003155372520555377
7.913435527502255,-0.0035576289020838705
7.917342951608056,-0.004029513196085658
7.921250375713857,-0.004600584234392278
7.925157799819658,-0.005290365910102113
7.929065223925459,-0.006108347177580392
7.93297264803126,-0.007053982052459195
7.936880072137061,-0.008116689611637438
7.940787496242862,-0.00928286945649748
7.944694920348663,-0.010506309134555221
7.948602344454464,-0.01143376759854062
7.952509768560265,-0.01171713370047648
7.956417192666066,-0.011084930531603098
7.960324616771867,-0.009342315422378268
7.964232040877668,-0.0063710799424772785
7.968139464983469,-0.0021296499007929116
7.97204688908927,0.0033469146545645565
7.975954313195071,0.009946919436267347
7.9798617373008724,0.017483598436860457
7.9837691614066735,0.025498008472416914
7.9876765855124745,0.032809278943055034
7.9915840096182755,0.038367381277761355
7.995491433724077,0.041451664789997386
7.999398857829878,0.04167085667769961
8.003306281935679,0.03896306202327944
8.00721370604148,0.033595492372094624
8.01112113014728,0.026225207499321272
8.015028554253082,0.0178857187701574
8.018935978358883,0.009494551383554279
8.022843402464684,0.0017622832479488384
8.026750826570485,-0.004807455018736355
8.030658250676286,-0.0099179800890931
8.034565674782087,-0.0134774600147897
8.038473098887888,-0.01540128479863638
8.042380522993689,-0.015926008413393096
8.04628794709949,-0.015445854492074784
8.050195371205291,-0.014302524618024651
8.054102795311092,-0.012785198324914149
8.058010219416893,-0.011130533096742988
8.061917643522694,-0.009522664367839166
8.065825067628495,-0.008093205522858886
8.069732491734296,-0.006921247896786654
8.073639915840097,-0.006033360774935204
8.077547339945898,-0.0054035913929455556
8.0814547640517,-0.004955881514719386
8.0853621881575,-0.00462201769190901
8.089269612263301,-0.004365981377390841
8.093177036369102,-0.004157306528338428
8.097084460474903,-0.00397041297693293
8.100991884580704,-0.003784606430363116
8.104899308686505,-0.0035840784708253684
8.108806732792306,-0.0033579065555236756
8.112714156898107,-0.0031000540166696445
8.116621581003908,-0.0028093700614824856
8.12052900510971,-0.0024895897721890253
8.12443642921551,-0.002148185488214646
8.128343853321311,-0.0017808318395614842
8.132251277427113,-0.001384001404502394
8.136158701532914,-0.0009569238593257626
8.140066125638715,-0.0004992797979017482
8.143973549744516,-1.120073168228014e-05
8.147880973850317,0.0005067309102989408
8.151788397956118,0.0010534817814264416
8.155695822061919,0.0016275676175029783
8.15960324616772,0.0022270532367495363
8.16351067027352,0.0028495525398053298
8.167418094379322,0.0034922285097277973
8.171325518485123,0.004151793211992613
8.175232942590924,0.0048245077944936736
8.179140366696725,0.005507548609493713
8.183047790802526,0.0061995350940374705
8.186955214908327,0.0068929368723747945
8.190862639014128,0.007580138343799251
8.194770063119929,0.00825393832335276
8.19867748722573,0.00890755004182559
8.202584911331531,0.009534601145756365
8.206492335437332,0.010129133697432062
8.210399759543133,0.010685604174888008
8.214307183648934,0.011198883471907888
8.218214607754735,0.01166425689802373
8.222122031860536,0.012077424178515924
8.226029455966337,0.012434499454413203
8.229936880072138,0.012732011282492663
8.23384430417794,0.012966902635279744
8.23775172828374,0.013136530901048243
8.241659152389541,0.013238667883820308
8.245566576495342,0.013271499803366438
8.249474000601143,0.01323362729520549
8.253381424706944,0.013124065410604662
8.257288848812745,0.012941963517623905
8.261196272918546,0.012681937687651319
8.265103697024347,0.012347755977675741
8.269011121130148,0.011946862234169664
8.27291854523595,0.01148644858793945
8.27682596934175,0.010973455454125336
8.280733393447552,0.010414571532201431
8.284640817553353,0.00981623380597572
8.288548241659154,0.009184627543590057
8.292455665764955,0.008525686297520171
8.296363089870756,0.007845091904575666
8.300270513976557,0.007148274485900015
8.304177938082358,0.00644041244697057
8.308085362188159,0.00572643247759855
8.31199278629396,0.005011009551929053
8.31590021039976,0.004298566928441043
8.319807634505562,0.003593276149947363
8.323715058611363,0.0028990570435947337
8.327622482717164,0.0022195777208637354
8.331529906822965,0.0015582545775688333
8.335437330928766,0.0009182522938583609
8.339344755034565,0.0003024838342147954
8.343252179140366,-0.0002863895525463383
8.347159603246167,-0.0008459583332747975
8.351067027351968,-0.0013740646904867627
8.35497445145777,-0.0018688025223645346
8.35888187556357,-0.0023285174427565246
8.362789299669371,-0.002751843881509837
8.366696723775172,-0.003138965293314895
8.370604147880973,-0.003491772390461043
8.374511571986774,-0.00381221038716306
8.378418996092575,-0.004102171088833283
8.382326420198376,-0.004363492892081603
8.386233844304178,-0.004597960784715473
8.390141268409979,-0.004807306345739899
8.39404869251578,-0.004993207745357447
8.39795611662158,-0.005157289744968237
8.401863540727382,-0.005301123697169948
8.405770964833183,-0.005426227545757816
8.409678388938984,-0.005534065825724634
8.413585813044785,-0.005626049663260753
8.417493237150586,-0.005703536775754078
8.421400661256387,-0.005767831471790074
8.425308085362188,-0.005820184651151762
8.429215509467989,-0.00586179380481972
8.43312293357379,-0.0058938030149720865
8.43703035767959,-0.00591730295498455
8.440937781785392,-0.00593333088943036
8.444845205891193,-0.005942870674080324
8.448752629996994,-0.005946852755902805
8.452660054102795,-0.005946154173063725
8.456567478208596,-0.005941598554926564
8.460474902314397,-0.005933956122052352
8.464382326420198,-0.005923943686199685
8.468289750525999,-0.0059121568078057615
8.4721971746318,-0.0058987667743647726
8.476104598737601,-0.005883928423935042
8.480012022843402,-0.005867802836590109
8.483919446949203,-0.005850542595003307
8.487826871055004,-0.005832291784447757
8.491734295160805,-0.005813185992796369
8.495641719266606,-0.005793352310521846
8.499549143372407,-0.005772909330696682
8.503456567478208,-0.00575196714899316
8.50736399158401,-0.0057306273636833546
8.51127141568981,-0.005708983075639129
8.515178839795611,-0.0056871188883321384
8.519086263901412,-0.005665110907833829
8.522993688007213,-0.005643026742815437
8.526901112113014,-0.005620925504547989
8.530808536218816,-0.005598857806902301
8.534715960324617,-0.005576865766348982
8.538623384430418,-0.0055549830019584285
8.542530808536219,-0.0055332346354008315
8.54643823264202,-0.005511637290946168
8.55034565674782,-0.00549019909546421
8.554253080853622,-0.0054689196784245145
8.558160504959423,-0.0054477901718964356
8.562067929065224,-0.005426793210549113
8.565975353171025,-0.005405902931651479
8.569882777276826,-0.005385084975072256
8.573790201382627,-0.005364296483279955
8.577697625488428,-0.005343486101342883
8.581605049594229,-0.005322555783995383
8.58551247370003,-0.005301457272023024
8.589419897805831,-0.005280278374434773
8.593327321911632,-0.0052590991971021486
8.597234746017433,-0.005237989443175303
8.601142170123234,-0.0052170084130830205
8.605049594229035,-0.005196205004532716
8.608957018334836,-0.005175617712510438
8.612864442440637,-0.005155274629280869
8.616771866546438,-0.005135193444387322
8.62067929065224,-0.005115381444651741
8.62458671475804,-0.005095835514174707
8.628494138863841,-0.00507654213433543
8.632401562969642,-0.005057477383791751
8.636308987075443,-0.005038606938480148
8.640216411181244,-0.0050198860716157276
8.644123835287045,-0.00500125965369223
8.648031259392846,-0.0049826621524820276
8.651938683498647,-0.004964017633036126
8.655846107604448,-0.004945239757684163
8.65975353171025,-0.004926231786034409
8.66366095581605,-0.004906886574973764
8.667568379921851,-0.0048870865786677644
8.671475804027653,-0.004866703848560576
8.675383228133454,-0.004845600033375
8.679290652239255,-0.004823626379112467
8.683198076345056,-0.004800623729053041
8.687105500450857,-0.00477642252375542
8.691012924556658,-0.004750825521610821
8.694920348662459,-0.004723244734888316
8.69882777276826,-0.004692591993591571
8.70273519687406,-0.004657529373269203
8.706642620979862,-0.004616479763725895
8.710550045085663,-0.004567626869022397
8.714457469191464,-0.004508915207475528
8.718364893297265,-0.004438050111658171
8.722272317403066,-0.004352497728399282
8.726179741508867,-0.00424948501878388
8.730087165614668,-0.00412599975815305
8.733994589720469,-0.003978790536103949
8.73790201382627,-0.003804366756489798
8.741809437932071,-0.003598998637419887
8.745716862037872,-0.0033587172112595704
8.749624286143673,-0.003079314324630275
8.753531710249474,-0.0027563426384094904
8.757439134355275,-0.002385019570293979
8.761346558461076,-0.001959366663998789
8.765253982566877,-0.0014803934035969545
8.769161406672678,-0.000952235681350426
8.77306883077848,-0.00037997505984215755
8.77697625488428,0.00023036122802389154
8.780883678990081,0.00087180027902276
8.784791103095882,0.0015364235196084815
8.788698527201683,0.0022153667059140866
8.792605951307484,0.0028988199237516
8.796513375413285,0.0035760275886120444
8.800420799519086,0.0042352884456654406
8.804328223624887,0.004863955569760801
8.808235647730688,0.005448436365426136
8.81214307183649,0.005974192566868452
8.81605049594229,0.006425740237973752
8.819957920048092,0.006786649772307037
8.823865344153893,0.0070395458931123015
8.827772768259694,0.007169080071448322
8.831680192365495,0.00717612008429176
8.835587616471296,0.00706782149337271
8.839495040577097,0.006852015806916942
8.843402464682898,0.006537205544694171
8.847309888788699,0.006132564238018053
8.8512173128945,0.005647936429746189
8.8551247370003,0.005093837674280122
8.859032161106102,0.004481454537565337
8.862939585211903,0.003822644597091268
8.866847009317704,0.003129936441891284
8.870754433423505,0.0024165296725427027
8.874661857529306,0.0016962949011667845
8.878569281635107,0.0009837737514287312
8.882476705740908,0.0002941788585376897
8.886384129846709,-0.0003566061307532526
8.89029155395251,-0.0009123764446119596
8.894198978058311,-0.0013261580588469866
8.898106402164112,-0.0016704526882855637
8.902013826269913,-0.0020087545895232143
8.905921250375714,-0.0023920319018214684
8.909828674481515,-0.0028587266471078667
8.913736098587316,-0.00343475472997596
8.917643522693117,-0.004133505937685304
8.921550946798918,-0.004955843940161475
8.92545837090472,-0.0058901062899960385
8.92936579501052,-0.006912104422446593
8.933273219116321,-0.007985123655436724
8.937180643222122,-0.009059923189556045
8.941088067327923,-0.010074736108060168
8.944995491433724,-0.010955269376870717
8.948902915539525,-0.011614703844575308
8.952810339645326,-0.011939305531705118
8.956717763751127,-0.01152216759770138
8.960625187856929,-0.009948104512338617
8.96453261196273,-0.006970927099656934
8.96844003606853,-0.0025134565311524526
8.972347460174332,0.0033324756742226895
8.976254884280133,0.010306027650060326
8.980162308385934,0.01797734718249626
8.984069732491735,0.025747571710210304
8.987977156597536,0.032846833525859924
8.991884580703337,0.03829361912633411
8.995792004809138,0.04128008917879111
8.999699428914939,0.041383815905945545
9.00360685302074,0.038540299936030704
9.00751427712654,0.03304297030279857
9.011421701232342,0.02554318444551975
9.015329125338143,0.017050228208983526
9.019236549443944,0.00870230851343316
9.023143973549745,0.0010786538189466888
9.027051397655546,-0.00538958195692972
9.030958821761347,-0.01042224207909851
9.034866245867148,-0.013893815485416652
9.038773669972949,-0.015833436786695645
9.04268109407875,-0.016424886266701508
9.046588518184551,-0.015953505435266475
9.050495942290352,-0.014705553436041534
9.054403366396153,-0.013039365701158528
9.058310790501954,-0.011246600126889503
9.062218214607755,-0.00954584671805684
9.066125638713556,-0.008082627588033258
9.070033062819357,-0.006929396958741799
9.073940486925158,-0.006085541160655855
9.07784791103096,-0.005479821583702243
9.08175533513676,-0.005038260102553897
9.085662759242561,-0.0047161643911707955
9.089570183348362,-0.004473010093412111
9.093477607454163,-0.004274561623225609
9.097385031559964,-0.004092872164647648
9.101292455665766,-0.003906283671803183
9.105199879771567,-0.00369942686890576
9.109107303877368,-0.0034632212502575185
9.113014727983169,-0.003194875080249194
9.11692215208897,-0.002897885393360117
9.12082957619477,-0.0025808620432762963
9.124737000300572,-0.0022393319457971153
9.128644424406373,-0.001869026856461574
9.132551848512174,-0.001468913603703878
9.136459272617975,-0.001038385253412648
9.140366696723776,-0.000577261108930918
9.144274120829577,-8.57867110561376e-05
9.148181544935378,0.0004353661619598292
9.152088969041179,0.0009850994944107056
9.15599639314698,0.0015618890331357991
9.159903817252781,0.002163784287520003
9.163811241358582,0.002788408529493795
9.167718665464383,0.0034329587935332424
9.171626089570184,0.0040942309218602885
9.175533513675985,0.004771929714511391
9.179440937781786,0.005461970012564253
9.183348361887587,0.006157012834672105
9.187255785993388,0.0068500277924267395
9.19116321009919,0.007534293090358515
9.19507063420499,0.008203395525936352
9.198978058310791,0.008851230489567732
9.202885482416592,0.009472001964598704
9.206792906522393,0.010060222527313875
9.210700330628194,0.010610713346936425
9.214607754733995,0.011118604185628083
9.218515178839796,0.011579333398489154
9.222422602945597,0.0119886479335585
9.226330027051398,0.012342603331813546
9.2302374511572,0.012637563727170287
9.234144875263,0.01287020184648327
9.238052299368801,0.013037499009545615
9.241959723474602,0.013136745129089002
9.245867147580404,0.013165538710783672
9.249774571686205,0.013121786853238435
9.253681995792006,0.01300204918930428
9.257589419897807,0.012800041906984453
9.261496844003608,0.012521558298822011
9.265404268109409,0.012173618686751963
9.26931169221521,0.01176303253994334
9.27321911632101,0.011296398474799196
9.277126540426812,0.01078010425495661
9.281033964532613,0.01022032679128669
9.284941388638414,0.009623032141894562
9.288848812744215,0.008993975512119378
9.292756236850016,0.008338701254534314
9.296663660955817,0.0076625428689465706
9.300571085061618,0.0069706230023973735
9.304478509167419,0.00626785344916197
9.30838593327322,0.005558935150749635
9.312293357379021,0.004848358195903665
9.316200781484822,0.004140401820601379
9.320108205590623,0.0034391344080541234
9.324015629696424,0.0027484134887072707
9.327923053802225,0.002071885740240212
9.331830477908026,0.0014129869875663635
9.335737902013827,0.0007749422028331728
9.339645326119628,0.0001607655054221037
9.34355275022543,-0.0004267398380513616
9.34746017433123,-0.0009849814137376997
9.351367598437031,-0.0015115776605533725
9.355275022542832,-0.002004357870180818
9.359182446648633,-0.002461362187068451
9.363089870754434,-0.002881057989638544
9.366997294860235,-0.0032644100390762623
9.370904718966036,-0.003613488342212301
9.374812143071837,-0.00393027498638947
9.378719567177638,-0.004216694661248541
9.38262699128344,-0.004474614658728243
9.38653441538924,-0.004705844873065265
9.390441839495042,-0.004912137800794254
9.394349263600843,-0.005095188540747817
9.398256687706644,-0.0052566347940565215
9.402164111812445,-0.0053980568641488905
9.406071535918246,-0.00552097765675141
9.409978960024047,-0.005626862679888523
9.413886384129848,-0.005717120043882633
9.417793808235649,-0.0057931004613541
9.42170123234145,-0.005856097247221246
9.42560865644725,-0.005907346318700352
9.429516080553052,-0.005948026195305657
9.433423504658853,-0.005979257998849359
9.437330928764654,-0.006002105453441616
9.441238352870455,-0.006017574885490545
9.445145776976256,-0.006026615223702224
9.449053201082057,-0.0060301179990806825
9.452960625187858,-0.0060289173449279195
9.456868049293659,-0.0060237899968438886
9.46077547339946,-0.0060154552927265004
9.464682897505261,-0.0060045751727716284
9.468590321611062,-0.0059917541794731
9.472497745716863,-0.005977503360480533
9.476405169822664,-0.005961991606221358
9.480312593928465,-0.005945336347147197
9.484220018034266,-0.005927664418693351
9.488127442140067,-0.005909096134784687
9.492034866245868,-0.0058897452878356365
9.49594229035167,-0.005869719148750199
9.49984971445747,-0.005849118466921935
9.503757138563271,-0.005828037470233975
9.507664562669072,-0.005806563865059014
9.511571986774873,-0.00578477883625931
9.515479410880674,-0.005762757047186689
9.519386834986475,-0.005740566639682542
9.523294259092276,-0.0057182692340778255
9.527201683198077,-0.005695919929193061
9.531109107303879,-0.005673567302338336
9.53501653140968,-0.005651253409313302
9.53892395551548,-0.005629013784407179
9.542831379621282,-0.005606877440398751
9.546738803727083,-0.005584866868556366
9.550646227832884,-0.005562998038637939
9.554553651938685,-0.005541280398890951
9.558461076044486,-0.005519716876052448
9.562368500150287,-0.00549830387534904
9.566275924256088,-0.0054770312804969055
9.570183348361889,-0.005455882453701786
9.57409077246769,-0.005434834235658989
9.57799819657349,-0.005413856945553389
9.581905620679292,-0.005392914381059424
9.585813044785093,-0.0053719638183410984
9.589720468890894,-0.005350863059633587
9.593627892996695,-0.005329529733107339
9.597535317102496,-0.0053080843850541355
9.601442741208297,-0.005286634301231686
9.605350165314098,-0.005265271709632896
9.609257589419899,-0.005244073780485862
9.6131650135257,-0.005223102626253872
9.617072437631501,-0.005202405301635412
9.620979861737302,-0.005182013803564158
9.624887285843103,-0.00516194507120898
9.628794709948904,-0.005142200985973943
9.632702134054705,-0.005122768371498303
9.636609558160506,-0.005103618993656511
9.640516982266307,-0.005084709560558212
9.644424406372108,-0.0050659817225482415
9.64833183047791,-0.005047362072206632
9.65223925458371,-0.005028762144348607
9.656146678689511,-0.005010078416024583
9.660054102795312,-0.004991192306520173
9.663961526901113,-0.00497197017735618
9.667868951006914,-0.004952263332288602
9.671776375112714,-0.00493190801730864
9.675683799218515,-0.00491072542064266
9.679591223324316,-0.004888521672752249
9.683498647430117,-0.004865087846334178
9.687406071535918,-0.004840199956320412
9.691313495641719,-0.004813618959878108
9.69522091974752,-0.004785178069616851
9.699128343853321,-0.004754389959377407
9.703035767959122,-0.004719568402826657
9.706943192064923,-0.004678775763749013
9.710850616170724,-0.004629901245648612
9.714758040276525,-0.00457066089174932
9.718665464382326,-0.004498597584994726
9.722572888488127,-0.004411081048048149
9.726480312593928,-0.00430530784329263
9.73038773669973,-0.004178301372830941
9.73429516080553,-0.004026911878485579
9.738202584911331,-0.0038478164417987647
9.742110009017132,-0.0036375189840324486
9.746017433122933,-0.003392350266168306
9.749924857228734,-0.0031084678889077393
9.753832281334535,-0.002781856292671876
9.757739705440336,-0.002408326757601572
9.761647129546137,-0.0019831081213466063
9.765554553651938,-0.0015001326297146961
9.76946197775774,-0.0009638837358101726
9.77336940186354,-0.0003816139887195089
9.777276825969341,0.00023882857629211685
9.781184250075142,0.0008890004377808199
9.785091674180943,0.0015598625881240117
9.788999098286745,0.002241780533520397
9.792906522392546,0.0029245242939899756
9.796813946498347,0.00359726840337404
9.800721370604148,0.004248591909335181
9.804628794709949,0.004866478373357285
9.80853621881575,0.005438315870745523
9.81244364292155,0.0059508969906263715
9.816351067027352,0.006390418835947596
9.820258491133153,0.006742483023478258
9.824165915238954,0.0069920956838087165
9.828073339344755,0.007123657443735372
9.831980763450556,0.007125601935794444
9.835888187556357,0.007004747685451191
9.839795611662158,0.006772362045958101
9.843703035767959,0.006439825941621923
9.84761045987376,0.006018633867803674
9.851517883979561,0.005520393890918629
9.855425308085362,0.004956827648436331
9.859332732191163,0.00433977034888058
9.863240156296964,0.0036811707718294464
9.867147580402765,0.002993091267915254
9.871055004508566,0.002287707758824602
9.874962428614367,0.0015773097372983429
9.878869852720168,0.0008743002671315961
9.88277727682597,0.00019119598317373938
9.88668470093177,-0.0004593729086715759
9.890592125037571,-0.0010646626314464447
9.894499549143372,-0.001608557329469839
9.898406973249173,-0.0020851245747149
9.902314397354974,-0.0025189485438770736
9.906221821460775,-0.0029354459524788337
9.910129245566576,-0.003359137651155941
9.914036669672377,-0.003813648625657438
9.917944093778178,-0.004321707996845656
9.92185151788398,-0.004905149020696205
9.92575894198978,-0.005584909088297985
9.929666366095582,-0.006381029725853177
9.933573790201383,-0.007312656594677249
9.937481214307184,-0.00839803949119895
9.941388638412985,-0.009600479305925825
9.945296062518786,-0.010686884527927053
9.949203486624587,-0.011396641286931929
9.953110910730388,-0.011490153601208603
9.957018334836189,-0.010748840931909589
9.96092575894199,-0.008975138183071756
9.96483318304779,-0.005992495701616342
9.968740607153592,-0.0016453792773489266
9.972648031259393,0.004243519506974713
9.976555455365194,0.011347797603691473
9.980462879470995,0.019006547564216256
9.984370303576796,0.026541255434882755
9.988277727682597,0.03325597245625769
9.992185151788398,0.03843731506314091
9.996092575894199,0.04135446488456525
10.0,0.04126250157163378
