time,amplitude
0.0009017132551849549,-0.0028833462221652785
0.004809137360985982,-0.0029789034226140924
0.00871656146678701,-0.0030217795612284084
0.012623985572588037,-0.003037669002733395
0.016531409678389064,-0.003041528920490301
0.02043883378419009,-0.003037012661052099
0.02434625788999112,-0.0030281922049837503
0.028253681995792146,-0.003018022318826957
0.03216110610159317,-0.0030083405551001607
0.0360685302073942,-0.0029998672522985434
0.03997595431319523,-0.002992205534894027
0.043883378418996255,-0.0029847174224213124
0.04779080252479728,-0.002977876028204673
0.05169822663059831,-0.0029717398162401915
0.05560565073639934,-0.002966342280784554
0.059513074842200364,-0.002961698875819074
0.06342049894800139,-0.002957807015049693
0.06732792305380242,-0.0029546460719069804
0.07123534715960345,-0.0029521773795461318
0.07514277126540447,-0.002950344230846972
0.0790501953712055,-0.002949071878413953
0.08295761947700653,-0.002948267534576154
0.08686504358280756,-0.0029478203713872823
0.09077246768860858,-0.0029476015206256734
0.09467989179440961,-0.002947464073794289
0.09858731590021064,-0.00294724308212072
0.10249474000601166,-0.0029468224683731337
0.10640216411181269,-0.002946028962835124
0.11030958821761372,-0.00294455384366811
0.11421701232341475,-0.0029421178797407453
0.11812443642921577,-0.0029384727246314704
0.1220318605350168,-0.002933400916628514
0.12593928464081783,-0.0029267158787298904
0.12984670874661886,-0.002918261918643401
0.13375413285241988,-0.0029079142287866348
0.1376615569582209,-0.0028955788862869663
0.14156898106402194,-0.0028811928529815585
0.14547640516982296,-0.0028647239754173593
0.149383829275624,-0.0028461709848511055
0.15329125338142502,-0.0028255634972493195
0.15719867748722605,-0.0028029620132883105
0.16110610159302707,-0.0027784579183541755
0.1650135256988281,-0.002752173482542798
0.16892094980462868,-0.0027241812602895417
0.1728283739104297,-0.002694717295975785
0.17673579801623074,-0.002664261697148831
0.18064322212203177,-0.0026332717768203116
0.1845506462278328,-0.0026021795958431314
0.18845807033363382,-0.0025713919629114733
0.19236549443943485,-0.0025412904345607956
0.19627291854523587,-0.0025122313151678317
0.2001803426510369,-0.002484545656950591
0.20408776675683793,-0.0024585392599683602
0.20799519086263896,-0.0024344926721217006
0.21190261496843998,-0.0024126611891524493
0.215810039074241,-0.0023932748546437207
0.21971746318004204,-0.002376538460019903
0.22362488728584307,-0.002362631544546662
0.2275323113916441,-0.002351708395330939
0.23143973549744512,-0.002343898047320951
0.23534715960324615,-0.0023393042833061914
0.23925458370904717,-0.0023408941075743674
0.2431620078148482,-0.0023442256257280047
0.24706943192064923,-0.002342841096524329
0.25097685602645026,-0.00236166758022564
0.2548842801322513,-0.002458190488478464
0.2587917042380523,-0.0027250689034739326
0.26269912834385334,-0.0034605469885581877
0.26660655244965437,-0.004568705198928378
0.2705139765554554,-0.00532409762062959
0.2744214006612564,-0.004598299041435004
0.27832882476705745,-0.000830402533511204
0.2822362488728585,0.006017748009661364
0.2861436729786595,0.013578782979253952
0.29005109708446053,0.01736095705561715
0.29395852119026156,0.014619289403181388
0.2978659452960626,0.006897307179557045
0.3017733694018636,-0.0009079213461210415
0.30568079350766464,-0.005794303369031445
0.30958821761346567,-0.007206129030729352
0.3134956417192667,-0.0062207608713359
0.3174030658250677,-0.004525509610264418
0.32131048993086875,-0.0032849676096849004
0.3252179140366698,-0.0027422660005807483
0.3291253381424708,-0.0025515090126602947
0.33303276224827183,-0.002506496127740732
0.33694018635407286,-0.002489788996172163
0.3408476104598739,-0.0024620777862919174
0.3447550345656749,-0.002437009119780426
0.34866245867147594,-0.0024095430474946004
0.35256988277727697,-0.0023781416800687
0.356477306883078,-0.002337900734716512
0.360384730988879,-0.0022803088829496596
0.36429215509468005,-0.002192949383772176
0.3681995792004811,-0.0020323325680455173
0.3721070033062821,-0.0017942024228959118
0.37601442741208313,-0.0015060199483466325
0.37992185151788416,-0.001195551530138464
0.3838292756236852,-0.0008908689397297018
0.3877366997294862,-0.000620349334296154
0.39164412383528724,-0.000412675256731138
0.39555154794108827,-0.0002968346356454865
0.3994589720468893,-0.00030212078536754044
0.4033663961526903,-0.0004581324059431519
0.40727382025849135,-0.0007528295466656237
0.4111812443642924,-0.0010877927490871406
0.4150886684700934,-0.001414955524058888
0.41899609257589443,-0.0017003981774347246
0.42290351668169546,-0.0019227295320573994
0.4268109407874965,-0.002073086927758554
0.4307183648932975,-0.002155136221358718
0.43462578899909854,-0.002185071786667314
0.43853321310489957,-0.0021916165144826513
0.4424406372107006,-0.0021986416256026117
0.4463480613165016,-0.0022006962145695794
0.45025548542230265,-0.0021996938443758153
0.4541629095281037,-0.002197242462808645
0.4580703336339047,-0.0021944686519852195
0.46197775773970573,-0.0021920176283525155
0.46588518184550676,-0.0021900532426873355
0.4697926059513078,-0.0021882579800963082
0.4737000300571088,-0.002186107429565634
0.47760745416290984,-0.002183837267331226
0.48151487826871087,-0.0021814986766954705
0.4854223023745119,-0.002179105302534242
0.4893297264803129,-0.0021766647736321215
0.49323715058611395,-0.002174178702682393
0.497144574691915,-0.0021716426862870486
0.501051998797716,-0.002169046304956784
0.5049594229035166,-0.0021663731231110037
0.5088668470093176,-0.0021636006890778142
0.5127742711151186,-0.002160700535094029
0.5166816952209197,-0.002157638177305169
0.5205891193267207,-0.0021543731157654586
0.5244965434325217,-0.002150858834437828
0.5284039675383227,-0.002147042801193915
0.5323113916441238,-0.0021428664678140607
0.5362188157499248,-0.0021382683319248912
0.5401262398557258,-0.002133200301694482
0.5440336639615269,-0.0021275863535750498
0.5479410880673279,-0.002121355311519637
0.5518485121731289,-0.0021144490513841725
0.5557559362789299,-0.0021068225009274713
0.559663360384731,-0.002098443639811236
0.563570784490532,-0.0020892934996000543
0.567478208596333,-0.002079366163761403
0.571385632702134,-0.002068668767665643
0.5752930568079351,-0.0020572214985860233
0.5792004809137361,-0.0020450575956986795
0.5831079050195371,-0.0020322233500826336
0.5870153291253382,-0.0020187781047197938
0.5909227532311392,-0.0020047942544949553
0.5948301773369402,-0.0019903572461958006
0.5987376014427412,-0.001975565578512898
0.6026450255485423,-0.0019606932039026082
0.6065524496543433,-0.0019459445996475322
0.6104598737601443,-0.0019312595160514343
0.6143672978659453,-0.0019165989054604933
0.6182747219717464,-0.0019019458436747001
0.6221821460775474,-0.0018873055299478587
0.6260895701833484,-0.001872705286987586
0.6299969942891495,-0.0018581945609553105
0.6339044183949505,-0.0018438449214662745
0.6378118425007515,-0.0018297500615895323
0.6417192666065525,-0.0018160257978479509
0.6456266907123536,-0.00180281007021821
0.6495341148181546,-0.0017902629421308017
0.6534415389239556,-0.001778566600470031
0.6573489630297566,-0.0017679253555740156
0.6612563871355577,-0.0017585656412346857
0.6651638112413587,-0.001750736014697784
0.6690712353471597,-0.001744707156662866
0.6729786594529608,-0.0017219490288416558
0.6768860835587618,-0.001726601619938778
0.6807935076645628,-0.001942318596825513
0.6847009317703638,-0.002474994339542799
0.6886083558761649,-0.0033405785232729105
0.6925157799819659,-0.0044881247985875256
0.6964232040877669,-0.004764217411414351
0.700330628193568,-0.0023749444614075558
0.704238052299369,0.003082577962213185
0.70814547640517,0.010526699280719589
0.712052900510971,0.016977480889849465
0.7159603246167721,0.01772826274034113
0.7198677487225731,0.011993838122142747
0.7237751728283741,0.0037170825979108814
0.7276825969341751,-0.0029243072088766826
0.7315900210399762,-0.006084972241192843
0.7354974451457772,-0.006119961873476242
0.7394048692515782,-0.004631778080815544
0.7433122933573793,-0.00312122369025723
0.7472197174631803,-0.0022487963551675676
0.7511271415689813,-0.0018915975743517548
0.7550345656747823,-0.0017936045917591986
0.7589419897805834,-0.0018115111558557357
0.7628494138863844,-0.001850107896456712
0.7667568379921854,-0.001862282324726979
0.7706642620979864,-0.0018490188331808995
0.7745716862037875,-0.0018453433258035809
0.7784791103095885,-0.0018390403703290883
0.7823865344153895,-0.0018184139298516755
0.7862939585211906,-0.0017726546925316865
0.7902013826269916,-0.00168885846251225
0.7941088067327926,-0.001552026159919279
0.7980162308385936,-0.001345151705358789
0.8019236549443947,-0.0010618457184587505
0.8058310790501957,-0.0007213260123530525
0.8097385031559967,-0.0003635424074412267
0.8136459272617977,-5.095923157591762e-05
0.8175533513675988,0.0001636167359060136
0.8214607754733998,0.0002908474261101891
0.8253681995792008,0.00033710021682306147
0.8292756236850019,0.0002954482453186695
0.8331830477908029,0.00016068933741041297
0.8370904718966035,-4.732692883526184e-05
0.8409978960024045,-0.000308317043180708
0.8449053201082055,-0.0006040861641476644
0.8488127442140065,-0.000918528119017344
0.8527201683198076,-0.001237625403830414
0.8566275924256086,-0.001549449183386996
0.8605350165314096,-0.0018441592912466682
0.8644424406372107,-0.0021140042297284624
0.8683498647430117,-0.0023533211699108617
0.8722572888488127,-0.002558535951631809
0.8761647129546137,-0.0027281630834887
0.8800721370604148,-0.0028628057428383828
0.8839795611662158,-0.0029668080070004077
0.8878869852720168,-0.0030501924589818722
0.8917944093778178,-0.0031162763372474017
0.8957018334836189,-0.0031674856610792203
0.8996092575894199,-0.0032060771115025263
0.9035166816952209,-0.0032341380312854934
0.907424105801022,-0.0032535864249392697
0.911331529906823,-0.003266170958717977
0.915238954012624,-0.003273470960618714
0.919146378118425,-0.0032768964203815512
0.9230538022242261,-0.003277687989489536
0.9269612263300271,-0.0032769169811686888
0.9308686504358281,-0.0032754853703880053
0.9347760745416291,-0.003274125793859457
0.9386834986474302,-0.003273401550037988
0.9425909227532312,-0.0032737065991215166
0.9464983468590322,-0.00327526556305094
0.9504057709648333,-0.003278133725510124
0.9543131950706343,-0.0032821970319259143
0.9582206191764353,-0.0032871720894681283
0.9621280432822363,-0.0032926061670495574
0.9660354673880374,-0.00329787719532597
0.9699428914938384,-0.0033021937666961082
0.9738503155996394,-0.003304595135301689
0.9777577397054404,-0.0033039512170274033
0.9816651638112415,-0.003298962589500914
0.9855725879170425,-0.0032882872521408707
0.9894800120228435,-0.0032732998258321816
0.9933874361286446,-0.003255209591615425
0.9972948602344456,-0.003234474018266723
1.0012022843402466,-0.0032115268331583133
1.0051097084460476,-0.0031867780222585495
1.0090171325518487,-0.0031606138301319003
1.0129245566576497,-0.0031333967599389495
1.0168319807634507,-0.0031054655734363986
1.0207394048692517,-0.0030771352909770627
1.0246468289750528,-0.003048697191509873
1.0285542530808538,-0.0030204188125798775
1.0324616771866548,-0.0029925439503282383
1.0363691012924559,-0.002965292659492234
1.0402765253982569,-0.0029388612534052582
1.044183949504058,-0.002913422303996822
1.048091373609859,-0.002889124641792549
1.05199879771566,-0.0028660933559141815
1.055906221821461,-0.002844429794079576
1.059813645927262,-0.0028242115626027045
1.063721070033063,-0.002805492526393655
1.067628494138864,-0.0027883028089586304
1.071535918244665,-0.002772648792399951
1.0754433423504661,-0.002758513117416052
1.0793507664562672,-0.002745854683301483
1.0832581905620682,-0.00273460864794691
1.0871656146678692,-0.0027246864278391157
1.0910730387736702,-0.0027159756980609973
1.0949804628794713,-0.002708279134176464
1.0988878869852723,-0.002701205899049389
1.1027953110910733,-0.00269467136603902
1.1067027351968743,-0.0026886301599221875
1.1106101593026754,-0.002683037491637711
1.1145175834084764,-0.002677849158286398
1.1184250075142774,-0.0026730215431310426
1.1223324316200785,-0.0026685116155964286
1.1262398557258795,-0.002664276931269328
1.1301472798316805,-0.002660275631898499
1.1340547039374815,-0.0026564664453946896
1.1379621280432826,-0.0026528086858306353
1.1418695521490836,-0.0026492622534410597
1.1457769762548846,-0.002645787634622674
1.1496844003606856,-0.0026423459019341783
1.1535918244664867,-0.00263889871409626
1.1574992485722877,-0.0026354083159915954
1.1614066726780887,-0.0026318375386648477
1.1653140967838898,-0.002628149799322669
1.1692215208896908,-0.0026243091013336993
1.1731289449954918,-0.0026202800342285666
1.1770363691012928,-0.0026160277736998866
1.1809437932070939,-0.0026115180816022637
1.1848512173128949,-0.00260671730595229
1.188758641418696,-0.002601592380928546
1.192666065524497,-0.0025961108268715994
1.196573489630298,-0.0025902407502840065
1.200480913736099,-0.0025839508438303127
1.2043883378419,-0.002577210386337049
1.208295761947701,-0.002569989242792737
1.212203186053502,-0.0025622578643478846
1.216110610159303,-0.002553987288314989
1.2200180342651041,-0.002544952904312156
1.2239254583709052,-0.002534905302055748
1.2278328824767062,-0.0025239228250562755
1.2317403065825072,-0.0025120851576959377
1.2356477306883082,-0.002499470628443142
1.2395551547941093,-0.0024861562098525045
1.2434625788999103,-0.002472217518564849
1.2473700030057113,-0.0024577288153072078
1.2512774271115124,-0.0024427630048928202
1.2551848512173134,-0.0024273916362211345
1.2590922753231144,-0.002411684902277807
1.2629996994289154,-0.0023957116401347018
1.2669071235347165,-0.002379539330949891
1.2708145476405175,-0.0023632340999676553
1.2747219717463185,-0.002346860716518483
1.2786293958521195,-0.0023304825940190705
1.2825368199579206,-0.0023141617899723223
1.2864442440637216,-0.0022979590059673508
1.2903516681695226,-0.002281933587679477
1.2942590922753237,-0.00226614352487023
1.2981665163811247,-0.002250645451387346
1.3020739404869257,-0.0022354946451647703
1.3059813645927267,-0.002220745028222655
1.3098887886985278,-0.0022064491666673627
1.3137962128043288,-0.0021926582706914615
1.3177036369101298,-0.002179422194573728
1.3216110610159308,-0.002166789436679149
1.3255184851217319,-0.0021548071394589165
1.329425909227533,-0.002143521089450432
1.333333333333334,-0.002132975717277306
1.337240757439134,-0.002123214097649357
1.341148181544935,-0.002114277949362607
1.3450556056507361,-0.002106207635299291
1.3489630297565371,-0.0020990421624278513
1.3528704538623382,-0.0020928191818029383
1.3567778779681392,-0.0020875749885654084
1.3606853020739402,-0.0020706430691390105
1.3645927261797413,-0.001990750748180123
1.3685001502855423,-0.0019193124215163325
1.3724075743913433,-0.0019301903893351492
1.3763149984971443,-0.002077376652931784
1.3802224226029454,-0.00239499291470915
1.3841298467087464,-0.002897290578177864
1.3880372708145474,-0.0035786507479562447
1.3919446949203484,-0.004413584229770314
1.3958521190261495,-0.005356731530453794
1.3997595431319505,-0.00634286285794811
1.4036669672377515,-0.007290166227732297
1.4075743913435526,-0.007995886841544763
1.4114818154493536,-0.007856141770674282
1.4153892395551546,-0.006380314902723215
1.4192966636609556,-0.003299419413664303
1.4232040877667567,0.001433902232159362
1.4271115118725577,0.00764537828203431
1.4310189359783587,0.014939107694876722
1.4349263600841597,0.022697705479497503
1.4388337841899608,0.02987877549723849
1.4427412082957618,0.034878631805194626
1.4466486324015628,0.03660512756156134
1.4505560565073639,0.03468041184765472
1.4544634806131649,0.029440929667911484
1.458370904718966,0.02192595739474631
1.462278328824767,0.013494293506069196
1.466185752930568,0.005375800319626686
1.470093177036369,-0.0015347720011455492
1.47400060114217,-0.006730128477806508
1.477908025247971,-0.010090502078190658
1.481815449353772,-0.011668491841440379
1.485722873459573,-0.0116056297554272
1.4896302975653741,-0.010350184654253428
1.4935377216711752,-0.008621575750994277
1.4974451457769762,-0.006998918939178908
1.5013525698827772,-0.0058144788365207456
1.5052599939885782,-0.00508634275364082
1.5091674180943793,-0.0046724936276898495
1.5130748422001803,-0.004456473463742776
1.5169822663059813,-0.004349651827426826
1.5208896904117823,-0.004291225844921519
1.5247971145175834,-0.004248212243359495
1.5287045386233844,-0.004208257338564074
1.5326119627291854,-0.004169220559557794
1.5365193868349865,-0.004132554207086327
1.5404268109407875,-0.004098843572953002
1.5443342350465885,-0.0040678069400188
1.5482416591523895,-0.00403829558220236
1.5521490832581906,-0.004008293764479973
1.5560565073639916,-0.003974918742885586
1.5599639314697926,-0.003934420764510804
1.5638713555755936,-0.0038821830675048814
1.5677787796813947,-0.0038127218810747317
1.5716862037871957,-0.0037196864254849214
1.5755936278929967,-0.0035958589120576733
1.5795010519987978,-0.0034234086848202766
1.5834084761045988,-0.0031963355798026094
1.5873159002103998,-0.002927458960911773
1.5912233243162008,-0.0026301455411946503
1.5951307484220019,-0.0023182957842389834
1.599038172527803,-0.002006343904173367
1.602945596633604,-0.0017092578656672528
1.606853020739405,-0.0014425393839309474
1.610760444845206,-0.0012222239247156137
1.614667868951007,-0.0010648807043132686
1.618575293056808,-0.0009876126895567872
1.622482717162609,-0.0010080565978198962
1.62639014126841,-0.0011439894687794595
1.630297565374211,-0.0013861320370181808
1.6342049894800121,-0.0016967945429716908
1.6381124135858132,-0.0020438488215282634
1.6420198376916142,-0.0024000707634968376
1.6459272617974152,-0.002743140315607015
1.6498346859032162,-0.0030556414805090644
1.6537421100090173,-0.0033250623167739145
1.6576495341148183,-0.0035437949388931623
1.6615569582206193,-0.0037091355172790656
1.6654643823264204,-0.0038232842782645474
1.6693718064322214,-0.0038933455041031974
1.6732792305380224,-0.003931327532969264
1.6771866546438234,-0.003950495766223571
1.6810940787496245,-0.003953079953051597
1.6850015028554255,-0.003942697110917643
1.6889089269612265,-0.003922849581030762
1.6928163510670275,-0.0038965746447855235
1.6967237751728286,-0.0038664445237620187
1.7006311992786296,-0.0038345663797258573
1.7045386233844306,-0.00380258231462817
1.7084460474902317,-0.003771669370605606
1.7123534715960327,-0.0037425395299803365
1.7162608957018337,-0.003715439715260049
1.7201683198076347,-0.0036901517891379542
1.7240757439134358,-0.0036659925544927805
1.7279831680192368,-0.003642978025390879
1.7318905921250378,-0.0036218209068558426
1.7357980162308388,-0.003602390806892617
1.7397054403366399,-0.003584560117493256
1.743612864442441,-0.003568204640111623
1.747520288548242,-0.003553203585663392
1.751427712654043,-0.0035394395745260454
1.755335136759844,-0.0035267986365388774
1.759242560865645,-0.003515170211002991
1.763149984971446,-0.0035044471466812986
1.767057409077247,-0.0034945257017985234
1.770964833183048,-0.0034853055440411985
1.7748722572888491,-0.003476689750557666
1.7787796813946501,-0.003468584807958079
1.7826871055004512,-0.0034609006123144
1.7865945296062522,-0.003453550469160401
1.7905019537120532,-0.0034464510934916646
1.7944093778178543,-0.003439522609765582
1.7983168019236553,-0.0034326885519013564
1.8022242260294563,-0.0034258758632799992
1.8061316501352573,-0.003419014896744332
1.8100390742410584,-0.003412039744536432
1.8139464983468594,-0.0034050255987699988
1.8178539224526604,-0.003398045713258818
1.8217613465584614,-0.0033910696161993325
1.8256687706642625,-0.0033840664767303455
1.8295761947700635,-0.003377005104933022
1.8334836188758645,-0.0033698539518308875
1.8373910429816656,-0.0033625811093898283
1.8412984670874666,-0.0033551543105180912
1.8452058911932676,-0.0033475409290662844
1.8491133152990686,-0.0033397079798273776
1.8530207394048697,-0.0033316221185367
1.8569281635106707,-0.003323249641871943
1.8608355876164717,-0.003314556487453158
1.8647430117222727,-0.003305508233842757
1.8686504358280738,-0.0032960701005455145
1.8725578599338748,-0.003286206948008564
1.8764652840396758,-0.003275883277621401
1.8803727081454769,-0.003265063231715882
1.8842801322512779,-0.003253710593566224
1.888187556357079,-0.003241788787389004
1.89209498046288,-0.0032292608783431615
1.896002404568681,-0.003216089572529996
1.899909828674482,-0.003202237216993169
1.903817252780283,-0.0031876657997187002
1.907724676886084,-0.0031723369496349735
1.911632100991885,-0.0031562119366127313
1.915539525097686,-0.0031392558035810187
1.9194469492034871,-0.003121547556915949
1.9233543733092882,-0.0031032332493546072
1.9272617974150892,-0.003084442857524924
1.9311692215208902,-0.0030652993129207857
1.9350766456266912,-0.0030459185019020346
1.9389840697324923,-0.003026409265694469
1.9428914938382933,-0.0030068734003898426
1.9467989179440943,-0.002987405656945866
1.9507063420498953,-0.0029680937411862046
1.9546137661556964,-0.0029490183138004803
1.9585211902614974,-0.002930252990344271
1.9624286143672984,-0.00291186434123911
1.9663360384730995,-0.0028939118917724873
1.9702434625789005,-0.0028764481220978477
1.9741508866847015,-0.0028595184672345923
1.9780583107905025,-0.0028431613170680787
1.9819657348963036,-0.00282740801634962
1.9858731590021046,-0.0028122828646964847
1.9897805831079056,-0.002797803116591898
1.9936880072137066,-0.0027839789813850404
1.9975954313195077,-0.002770813623291049
2.001502855425308,-0.0027583031613910183
2.005410279531109,-0.002746436669631992
2.00931770363691,-0.0027351961768269763
2.013225127742711,-0.0027245566666549317
2.017132551848512,-0.002714486077660775
2.021039975954313,-0.0027049453032553777
2.024947400060114,-0.0026958881917155675
2.028854824165915,-0.002691550760797963
2.032762248271716,-0.0026960747353918153
2.036669672377517,-0.0026960715456447355
2.040577096483318,-0.00268452720533786
2.044484520589119,-0.002662130381461805
2.04839194469492,-0.0026372723942166684
2.052299368800721,-0.002626047217012029
2.056206792906522,-0.0026522514764669458
2.0601142170123232,-0.00274738445240996
2.0640216411181243,-0.0029501191470058478
2.0679290652239253,-0.003323567087934501
2.0718364893297263,-0.004000645984169564
2.0757439134355273,-0.004982475416769868
2.0796513375413284,-0.006091121143810021
2.0835587616471294,-0.006969595100380408
2.0874661857529304,-0.007107054247929275
2.0913736098587314,-0.006007420664955555
2.0952810339645325,-0.002950414871322969
2.0991884580703335,0.002298145858291749
2.1030958821761345,0.00934104638708573
2.1070033062819356,0.01714967371613
2.1109107303877366,0.024047976369331994
2.1148181544935376,0.027952408634183062
2.1187255785993386,0.02763077456421633
2.1226330027051397,0.023051069267255545
2.1265404268109407,0.015373610300023401
2.1304478509167417,0.006889290254076764
2.1343552750225427,-0.0005120674801473504
2.1382626991283438,-0.005988096929054436
2.142170123234145,-0.009161206565276706
2.146077547339946,-0.010155171328883293
2.149984971445747,-0.009534826308370839
2.153892395551548,-0.008005739084625534
2.157799819657349,-0.006269015979267711
2.16170724376315,-0.004788611873771184
2.165614667868951,-0.003776826516139937
2.169522091974752,-0.003195363001969564
2.173429516080553,-0.002880078468073149
2.177336940186354,-0.002730795425006558
2.181244364292155,-0.002669324024576907
2.185151788397956,-0.002640450939824909
2.189059212503757,-0.002611939365024873
2.192966636609558,-0.002574529015684704
2.196874060715359,-0.0025405405910637153
2.20078148482116,-0.00251107329186689
2.2046889089269612,-0.0024826012553575364
2.2085963330327623,-0.0024550732819431545
2.2125037571385633,-0.0024275191664824727
2.2164111812443643,-0.0023980496982854483
2.2203186053501653,-0.0023638566611132675
2.2242260294559664,-0.0023212128331783453
2.2281334535617674,-0.002265471987144326
2.2320408776675684,-0.002194103131187849
2.2359483017733695,-0.002099347478188732
2.2398557258791705,-0.001968240921749735
2.2437631499849715,-0.001792878162041383
2.2476705740907725,-0.0015704851102044505
2.2515779981965736,-0.0013034188883499591
2.2554854223023746,-0.0009991678295591794
2.2593928464081756,-0.0006703514778836292
2.2633002705139766,-0.0003347205883450766
2.2672076946197777,-1.5157126935534584e-05
2.2711151187255787,0.0002616389512631915
2.2750225428313797,0.0004704132810917611
2.2789299669371808,0.0005889846822044862
2.282837391042982,0.000604546858195515
2.286744815148783,0.0005140891501492703
2.290652239254584,0.0003243965366404504
2.294559663360385,5.204963373402854e-05
2.298467087466186,-0.0002769051251072253
2.302374511571987,-0.0006343374859753904
2.306281935677788,-0.0009939481788195882
2.310189359783589,-0.0013345308048330028
2.31409678388939,-0.0016411401387768287
2.318004207995191,-0.0019050921289802745
2.321911632100992,-0.0021239638973405577
2.325819056206793,-0.0023015936888120814
2.329726480312594,-0.0024416112582623006
2.333633904418395,-0.002545757302568123
2.337541328524196,-0.0026193858830206047
2.341448752629997,-0.0026675149740267253
2.345356176735798,-0.002694826463109384
2.3492636008415992,-0.0027056661509074044
2.3531710249474003,-0.002704043751175529
2.3570784490532013,-0.002693632890784423
2.3609858731590023,-0.002677932654968915
2.3648932972648034,-0.002658909004061943
2.3688007213706044,-0.002637550788457294
2.3727081454764054,-0.002614743748833157
2.3766155695822064,-0.002591270694745144
2.3805229936880075,-0.002567811504626289
2.3844304177938085,-0.0025449431257870505
2.3883378418996095,-0.00252313957441531
2.3922452660054105,-0.002502771935576372
2.3961526901112116,-0.0024841083632129645
2.4000601142170126,-0.0024673140801452385
2.4039675383228136,-0.002452451378070768
2.4078749624286147,-0.0024394796175645503
2.4117823865344157,-0.002428255228079006
2.4156898106402167,-0.0024185317079439797
2.4195972347460177,-0.0024099596243667377
2.4235046588518188,-0.0024022330484257982
2.42741208295762,-0.0023953770875849104
2.431319507063421,-0.002389310167063415
2.435226931169222,-0.0023839471317192856
2.439134355275023,-0.002379206355025212
2.443041779380824,-0.002375009739068602
2.446949203486625,-0.0023712827145515804
2.450856627592426,-0.0023679542407909885
2.454764051698227,-0.0023649568057183845
2.458671475804028,-0.002362226425880044
2.462578899909829,-0.0023597026464369595
2.46648632401563,-0.00235732854116484
2.470393748121431,-0.002355050712454112
2.474301172227232,-0.002352819291309918
2.478208596333033,-0.002350587937352119
2.482116020438834,-0.0023483138388152914
2.486023444544635,-0.0023459577125487297
2.4899308686504362,-0.002343483804016445
2.4938382927562373,-0.0023408598872971653
2.4977457168620383,-0.0023380572650843353
2.5016531409678393,-0.002335050768686117
2.5055605650736403,-0.002331818758025389
2.5094679891794414,-0.0023283431216397474
2.5133754132852424,-0.002324609276681505
2.5172828373910434,-0.0023206061689176917
2.5211902614968444,-0.002316326272730054
2.5250976856026455,-0.002311765591115055
2.5290051097084465,-0.0023069236556838763
2.5329125338142475,-0.0023018035266624145
2.5368199579200486,-0.0022964114997879614
2.5407273820258496,-0.0022904611699638235
2.5446348061316506,-0.002283710686686042
2.5485422302374516,-0.002276184540295006
2.5524496543432527,-0.0022679092390806535
2.5563570784490537,-0.002258913309282466
2.5602645025548547,-0.0022492272950894727
2.5641719266606557,-0.002238883758640249
2.5680793507664568,-0.002227917280022915
2.571986774872258,-0.0022163644572751385
2.575894198978059,-0.0022042639063841324
2.57980162308386,-0.002191656261286657
2.583709047189661,-0.002178584173869017
2.587616471295462,-0.0021650923139670654
2.591523895401263,-0.002151227369366199
2.595431319507064,-0.0021370380458013622
2.599338743612865,-0.0021225750669570456
2.603246167718666,-0.0021078911744672854
2.607153591824467,-0.0020930411279156645
2.611061015930268,-0.0020780817048353106
2.614968440036069,-0.0020630717007089
2.61887586414187,-0.0020480719289686523
2.622783288247671,-0.002033145220996335
2.626690712353472,-0.0020183564261232623
2.630598136459273,-0.0020037724116302924
2.6345055605650742,-0.001989462062747832
2.6384129846708753,-0.001975496282655832
2.6423204087766763,-0.001961947992483791
2.6462278328824773,-0.0019488921313107522
2.6501352569882783,-0.0019364056561653065
2.6540426810940794,-0.00192456754202559
2.6579501051998804,-0.0019134587818192851
2.6618575293056814,-0.0019031623864236204
2.6657649534114825,-0.001893460308682725
2.6696723775172826,-0.0018839674816529502
2.6735798016230836,-0.001874788235860155
2.6774872257288846,-0.0018660230525470297
2.6813946498346857,-0.0018577617584351323
2.6853020739404867,-0.0018500835257248922
2.6892094980462877,-0.0018430568720956078
2.6931169221520888,-0.0018367396607054493
2.69702434625789,-0.001831179100191456
2.700931770363691,-0.0018264117446695387
2.704839194469492,-0.0018224634937344776
2.708746618575293,-0.001819349592459924
2.712654042681094,-0.0018170746313983992
2.716561466786895,-0.0018156325465812947
2.720468890892696,-0.0018150066195188727
2.724376314998497,-0.0018151694772002658
2.728283739104298,-0.001816083092093477
2.732191163210099,-0.001817698782145379
2.7360985873159,-0.001819957210781716
2.740006011421701,-0.0018227883869071017
2.743913435527502,-0.0018261116649050202
2.747820859633303,-0.0018298357446378266
2.751728283739104,-0.0018338586714467457
2.755635707844905,-0.0018380678361518733
2.759543131950706,-0.0018423399750521748
2.7634505560565072,-0.0018465411699254866
2.7673579801623083,-0.0018505268480285152
2.7712654042681093,-0.0018541417820968375
2.7751728283739103,-0.001857220090344901
2.7790802524797114,-0.0018595852364660232
2.7829876765855124,-0.001861050029632392
2.7868951006913134,-0.0018614166244950664
2.7908025247971144,-0.0018604765211839747
2.7947099489029155,-0.001858010565307916
2.7986173730087165,-0.0018537889479545598
2.8025247971145175,-0.0018475712056904466
2.8064322212203185,-0.0018397834807282985
2.8103396453261196,-0.001831773687514091
2.8142470694319206,-0.0018285708395600728
2.8181544935377216,-0.001843165830057173
2.8220619176435227,-0.0018966096118582176
2.8259693417493237,-0.002018013197477928
2.8298767658551247,-0.0022445476590929234
2.8337841899609257,-0.0026214441285417186
2.8376916140667268,-0.0032019937973247247
2.841599038172528,-0.004045301406114316
2.845506462278329,-0.005105712686806654
2.84941388638413,-0.006164988064289834
2.853321310489931,-0.006954535248386726
2.857228734595732,-0.007164980448971815
2.861136158701533,-0.006446168375971205
2.865043582807334,-0.004420369141312063
2.868951006913135,-0.0008193023930143451
2.872858431018936,0.004465224942866973
2.876765855124737,0.011245945610572353
2.880673279230538,0.01898770080978094
2.884580703336339,0.026330773887166196
2.88848812744214,0.030600659847042768
2.892395551547941,0.029887305853674186
2.896302975653742,0.024624608475258505
2.900210399759543,0.01652362196833692
2.9041178238653442,0.008377841838364812
2.9080252479711453,0.002232656417052647
2.9119326720769463,-0.001366908666770793
2.9158400961827473,-0.0024691791356304445
2.9197475202885483,-0.0017203838602191728
2.9236549443943494,-0.000161326361059592
2.9275623685001504,0.001437459084453441
2.9314697926059514,0.0026238458205076736
2.9353772167117524,0.0032495386228042315
2.9392846408175535,0.003469834747005269
2.9431920649233545,0.0035418035143009673
2.9470994890291555,0.0035345664170975985
2.9510069131349566,0.00350208409353205
2.9549143372407576,0.0034704738953726974
2.9588217613465586,0.003440126754094847
2.9627291854523596,0.003411539921696705
2.9666366095581607,0.003385928755658501
2.9705440336639617,0.0033643063961531217
2.9744514577697627,0.0033489033432841583
2.9783588818755637,0.003343167457085909
2.9822663059813648,0.003351763957523375
2.986173730087166,0.0033805754244922645
2.990081154192967,0.003449975858469349
2.993988578298768,0.0035790695666575844
2.997896002404569,0.0037593424205293025
3.00180342651037,0.0039809646858725845
3.005710850616171,0.004233069382059897
3.009618274721972,0.004503752282048093
3.013525698827773,0.0047800719123784145
3.017433122933574,0.005048049553176488
3.021340547039375,0.005292669238152328
3.025247971145176,0.005497877754600336
3.029155395250977,0.0056465846433993
3.033062819356778,0.005720662199012391
3.036970243462579,0.005700945469487174
3.04087766756838,0.005567232256455595
3.044785091674181,0.005311620815157122
3.0486925157799822,0.005037065904216831
3.0525999398857833,0.00477249214589184
3.0565073639915843,0.004520800780044728
3.0604147880973853,0.004284460322592795
3.0643222122031863,0.004065506565508069
3.0682296363089874,0.003865542576817306
3.0721370604147884,0.0036857387006019836
3.0760444845205894,0.0035268325569983074
3.0799519086263905,0.0033891290421972074
3.0838593327321915,0.0032725003284443397
3.0877667568379925,0.003176385864040085
3.0916741809437935,0.003099792373339552
3.0955816050495946,0.0030412938567525717
3.0994890291553956,0.002999031590743703
3.1033964532611966,0.00297071412783223
3.1073038773669976,0.0029536172965921622
3.1112113014727987,0.0029445842016522336
3.1151187255785997,0.002940025223695905
3.1190261496844007,0.0029359180194613622
3.1229335737902018,0.002927807521741518
3.126840997896003,0.002911875613715174
3.130748422001804,0.002894149614625816
3.134655846107605,0.002876548571949654
3.138563270213406,0.0028590592930707644
3.142470694319207,0.0028416726918170316
3.146378118425008,0.0028243837884601463
3.150285542530809,0.002807191709715607
3.15419296663661,0.002790099688742719
3.158100390742411,0.002773115065144595
3.162007814848212,0.0027562492849681555
3.165915238954013,0.0027395179007041266
3.169822663059814,0.002722940571287044
3.173730087165615,0.0027065410620952485
3.177637511271416,0.0026903472449508895
3.181544935377217,0.002674391098119923
3.185452359483018,0.002658708706312113
3.189359783588819,0.002643340260681029
3.1932672076946202,0.0026283300588240497
3.1971746318004213,0.0026137265047823603
3.2010820559062223,0.002599582109040953
3.2049894800120233,0.0025859590153750906
3.2088969041178244,0.002572950730828822
3.2128043282236254,0.002560618687289733
3.2167117523294264,0.0025490090854465353
3.2206191764352274,0.0025381583165614385
3.2245266005410285,0.0025280929624701483
3.2284340246468295,0.0025188297955818693
3.2323414487526305,0.0025103757788793014
3.2362488728584315,0.002502728065918643
3.2401562969642326,0.0024958740008295894
3.2440637210700336,0.0024897911183153327
3.2479711451758346,0.002484447143652563
3.2518785692816357,0.0024797999926914663
3.2557859933874367,0.002475797771855727
3.2596934174932377,0.002472378778142527
3.2636008415990387,0.002469471499122543
3.2675082657048398,0.0024669946129399524
3.271415689810641,0.002464856988312427
3.275323113916442,0.002462957684531137
3.279230538022243,0.0024611859514607494
3.283137962128044,0.002459421229539429
3.287045386233845,0.0024575331497788365
3.290952810339646,0.0024553815337641314
3.294860234445447,0.0024528192774759703
3.298767658551248,0.0024497679515007604
3.302675082657049,0.0024462293913559614
3.30658250676285,0.002442208448845113
3.310489930868651,0.0024377088784465098
3.314397354974452,0.0024327333373132002
3.318304779080253,0.0024272833852729877
3.322212203186054,0.0024213594848284292
3.326119627291855,0.0024149610011568374
3.330027051397656,0.002408086202110279
3.3339344755034572,0.002400732258215575
3.3378418996092574,0.002392895242674302
3.3417493237150584,0.0023845701313627873
3.3456567478208594,0.0023757508028321166
3.3495641719266604,0.0023664300383081293
3.3534715960324615,0.0023565995216914184
3.3573790201382625,0.002346249839557332
3.3612864442440635,0.0023353704811559725
3.3651938683498646,0.0023239498384121965
3.3691012924556656,0.0023119752059256155
3.3730087165614666,0.0022994327809705956
3.3769161406672676,0.0022863076634962566
3.3808235647730687,0.0022725838561264734
3.3847309888788697,0.0022582442641598754
3.3886384129846707,0.0022432706955698455
3.3925458370904717,0.0022244510890472137
3.3964532611962728,0.002203916032414412
3.400360685302074,0.0021900909522873744
3.404268109407875,0.002178872013767266
3.408175533513676,0.002153197839242073
3.412082957619477,0.0020830495083866
3.415990381725278,0.0019287613289343873
3.419897805831079,0.0015941948902537604
3.42380522993688,0.0009098720103477064
3.427712654042681,-0.00010377356617967187
3.431620078148482,-0.0012045758612605844
3.435527502254283,-0.001928619834008469
3.439434926360084,-0.0014381426611824824
3.443342350465885,0.0009821707130951156
3.447249774571686,0.005677464802502223
3.451157198677487,0.012710985207908601
3.455064622783288,0.020774328310787522
3.458972046889089,0.02670187044548005
3.4628794709948902,0.02846908401459014
3.4667868951006913,0.025420900389297167
3.4706943192064923,0.01839443932752393
3.4746017433122933,0.01004142275639058
3.4785091674180943,0.002663726594299698
3.4824165915238954,-0.0023846169737183655
3.4863240156296964,-0.0046674979571488875
3.4902314397354974,-0.004666222607464188
3.4941388638412985,-0.0033885170115346835
3.4980462879470995,-0.00167472557763339
3.5019537120529005,-0.000156671843407152
3.5058611361587015,0.0008418887296229565
3.5097685602645026,0.0013052687560616465
3.5136759843703036,0.0015071780238877842
3.5175834084761046,0.001610301969879695
3.5214908325819057,0.0016484104841082087
3.5253982566877067,0.0016627091514778542
3.5293056807935077,0.001675721180852933
3.5332131048993087,0.001691287405057519
3.5371205290051098,0.001702781676683562
3.541027953110911,0.0017130890060710541
3.544935377216712,0.001722232641273725
3.548842801322513,0.0017311756305099638
3.552750225428314,0.0017419722325465942
3.556657649534115,0.0017577679166988762
3.560565073639916,0.0017827993628305044
3.564472497745717,0.001821962464041076
3.568379921851518,0.0018765674441227496
3.572287345957319,0.001960516716727058
3.57619477006312,0.002086800751482903
3.580102194168921,0.0022623537748841013
3.584009618274722,0.0024880537702893874
3.587917042380523,0.0027587224779224116
3.591824466486324,0.0030631253948717406
3.595731890592125,0.0033839717750908573
3.599639314697926,0.0036979146293981613
3.6035467388037272,0.003975550725476968
3.6074541629095283,0.004180023002261978
3.6113615870153293,0.004274140442382677
3.6152690111211303,0.004259335417844592
3.6191764352269313,0.004145349856244076
3.6230838593327324,0.003944602022921254
3.6269912834385334,0.003672186520960019
3.6308987075443344,0.003345874291188033
3.6348061316501354,0.0029861126121767277
3.6387135557559365,0.0026160251002413024
3.6426209798617375,0.002261411709440728
3.6465284039675385,0.0019507487315777406
3.6504358280733396,0.0017076046362196496
3.6543432521791406,0.0015228773446020198
3.6582506762849416,0.0013864873852435203
3.6621581003907426,0.0012898097700895367
3.6660655244965437,0.0012250523653691415
3.6699729486023447,0.0011852558915950962
3.6738803727081457,0.0011642939235638476
3.6777877968139467,0.0011568728903555313
3.6816952209197478,0.0011585320753339698
3.685602645025549,0.0011656436161466722
3.68951006913135,0.0011754177303820244
3.693417493237151,0.0011862735234152192
3.697324917342952,0.001197657595973917
3.701232341448753,0.001209128056455431
3.705139765554554,0.001220292333188509
3.709047189660355,0.001230807174433331
3.712954613766156,0.0012403786483815113
3.716862037871957,0.0012487621431560968
3.720769461977758,0.0012557623668115682
3.724676886083559,0.0012612333473338393
3.72858431018936,0.0012650784326402572
3.732491734295161,0.0012672502905796026
3.736399158400962,0.0012677509089320895
3.740306582506763,0.0012666315954093649
3.744214006612564,0.0012639929776545097
3.7481214307183652,0.0012599850032420376
3.7520288548241663,0.0012547774721192702
3.7559362789299673,0.00124844783183037
3.7598437030357683,0.0012411265083091534
3.7637511271415693,0.0012329457449885182
3.7676585512473704,0.001224030117461078
3.7715659753531714,0.0012144965334791636
3.7754733994589724,0.0012044542329548223
3.7793808235647735,0.0011940047879598172
3.7832882476705745,0.0011832421027256294
3.7871956717763755,0.0011722524136434551
3.7911030958821765,0.0011611142892642087
3.7950105199879776,0.0011498986302985199
3.7989179440937786,0.0011386686696167353
3.8028253681995796,0.0011274799722489186
3.8067327923053806,0.0011163804353848499
3.8106402164111817,0.0011054102883740254
3.8145476405169827,0.0010946020927256584
3.8184550646227837,0.001083980742108679
3.8223624887285848,0.0010735634623517335
3.826269912834386,0.0010633598114431846
3.830177336940187,0.0010533716795311124
3.834084761045988,0.0010435932889233128
3.837992185151789,0.0010340111940872986
3.84189960925759,0.0010246042816502994
3.845807033363391,0.0010153437703992612
3.849714457469192,0.0010061932112808466
3.853621881574993,0.000997120704004146
3.857529305680794,0.000988220938501454
3.861436729786595,0.0009796139778638704
3.865344153892396,0.0009714011820399135
3.869251577998197,0.0009636729872309519
3.873159002103998,0.0009565089058912039
3.877066426209799,0.0009499775267277379
3.8809738503156,0.0009441365147004722
3.884881274421401,0.0009390326110221751
3.888788698527202,0.0009347016331584649
3.8926961226330032,0.0009311684748278098
3.8966035467388043,0.0009284471060015279
3.9005109708446053,0.0009265405729037873
3.9044183949504063,0.0009254409980116061
3.9083258190562074,0.0009251295800548523
3.9122332431620084,0.0009255765940162439
3.9161406672678094,0.0009267413911313488
3.9200480913736104,0.0009285723988885848
3.9239555154794115,0.00093100712102922
3.9278629395852125,0.0009339721375473722
3.9317703636910135,0.0009373831046900089
3.9356777877968145,0.000941144754956948
3.9395852119026156,0.0009451508971008571
3.9434926360084166,0.0009492844161272539
3.9474000601142176,0.0009534172732945059
3.9513074842200187,0.0009574105061138308
3.9552149083258197,0.0009611421236371214
3.9591223324316207,0.00096459909314051
3.9630297565374217,0.0009677157638387824
3.9669371806432228,0.000970427829020629
3.970844604749024,0.000972682068903807
3.974752028854825,0.0009744363506351419
3.978659452960626,0.0009756589053831413
3.982566877066427,0.00097632828297921
3.986474301172228,0.0009764378830958142
3.990381725278029,0.0009759853838134674
3.99428914938383,0.0009749715593815589
3.998196573489631,0.000973400280218353
4.002103997595432,0.0009690578302109783
4.006011421701232,0.0009556147242619771
4.009918845807033,0.0009538463032880695
4.013826269912834,0.0009599504977396218
4.017733694018635,0.000936705529015231
4.021641118124436,0.0008134699094617284
4.025548542230237,0.0004875489350653911
4.029455966336038,-0.00019674475258925903
4.033363390441839,-0.0012489880298395795
4.03727081454764,-0.0022410932664954698
4.041178238653441,-0.0023501641243517226
4.045085662759242,-0.00047651505045894545
4.0489930868650434,0.004094935240336878
4.0529005109708445,0.01107508192094479
4.0568079350766455,0.018902722494714957
4.0607153591824465,0.023599251014224602
4.0646227832882476,0.022702387899892755
4.068530207394049,0.016574820683716286
4.07243763149985,0.008226611838948877
4.076345055605651,0.0009789602726355123
4.080252479711452,-0.003424453376062314
4.084159903817253,-0.0048088131088741
4.088067327923054,-0.0040167628183958425
4.091974752028855,-0.0024262328773052796
4.095882176134656,-0.0009754452155525989
4.099789600240457,-9.087618327149449e-05
4.103697024346258,0.000297259577092423
4.107604448452059,0.0004318307441219637
4.11151187255786,0.00044488886784740576
4.115419296663661,0.0004233206637421392
4.119326720769462,0.00041184821296518187
4.123234144875263,0.0004130289623611821
4.127141568981064,0.0004089541750638837
4.131048993086865,0.0004082555930154533
4.134956417192666,0.0004130972325454268
4.138863841298467,0.0004276824130655757
4.142771265404268,0.0004585086847973796
4.146678689510069,0.0005138456823032947
4.15058611361587,0.0005999790478558661
4.154493537721671,0.0007373068203146704
4.158400961827472,0.0009399769687497405
4.162308385933273,0.0012098670937460549
4.166215810039074,0.001536584427403537
4.170123234144875,0.0018974658333370553
4.174030658250676,0.0022575778066764238
4.177938082356477,0.002569716474066403
4.181845506462278,0.0027730245810530818
4.185752930568079,0.0028314784274620125
4.18966035467388,0.0027590066984089284
4.1935677787796815,0.00257655694899825
4.1974752028854825,0.0023099235738077476
4.2013826269912835,0.0019897478068885387
4.2052900510970845,0.0016515177217650895
4.209197475202886,0.0013355682314352166
4.213104899308687,0.0010847079994115712
4.217012323414488,0.0009044219302174467
4.220919747520289,0.0007784661780941893
4.22482717162609,0.0006937412933973984
4.228734595731891,0.0006388170723683396
4.232642019837692,0.0006039325571339455
4.236549443943493,0.0005809960357068151
4.240456868049294,0.0005635850419852142
4.244364292155095,0.0005469594866893929
4.248271716260896,0.0005288737241167425
4.252179140366697,0.0005092570761618181
4.256086564472498,0.00048823956734902357
4.259993988578299,0.0004659965539348598
4.2639014126841,0.000442748723907925
4.267808836789901,0.00041876209698891477
4.271716260895702,0.00039434802463062207
4.275623685001503,0.00036986319001793694
4.279531109107304,0.0003457096080678468
4.283438533213105,0.0003223346254294364
4.287345957318906,0.00030023092048388775
4.291253381424707,0.000279932820834446
4.295160805530508,0.0002618510491025334
4.299068229636309,0.000246167934142993
4.30297565374211,0.00023301519103191055
4.306883077847911,0.0002224887576163275
4.310790501953712,0.00021464879451424073
4.314697926059513,0.00020951968511460272
4.318605350165314,0.00020709003557732128
4.322512774271115,0.00020731267483325996
4.326420198376916,0.00021010465458423772
4.330327622482717,0.00021534724930302905
4.334235046588518,0.00022288595623336393
4.3381424706943195,0.00023253049538992797
4.3420498948001205,0.0002440548095583621
4.3459573189059215,0.00025719706429526304
4.3498647430117225,0.0002716596479281828
4.353772167117524,0.0002871091715556289
4.357679591223325,0.00030317646904706453
4.361587015329126,0.00031945659704290847
4.365494439434927,0.00033550883495453475
4.369401863540728,0.00035085879651273306
4.373309287646529,0.0003652278665209322
4.37721671175233,0.0003785211051879275
4.381124135858131,0.0003906161217264701
4.385031559963932,0.00040141058758643984
4.388938984069733,0.00041082223645484516
4.392846408175534,0.0004187888642558233
4.396753832281335,0.00042526832915064003
4.400661256387136,0.0004302385515376901
4.404568680492937,0.0004336975140524966
4.408476104598738,0.00043566326156771153
4.412383528704539,0.00043617390119311556
4.41629095281034,0.00043528760227561796
4.420198376916141,0.00043308259639925675
4.424105801021942,0.0004296571773851986
4.428013225127743,0.00042512970129173904
4.431920649233544,0.000419638586414302
4.435828073339345,0.0004133423132854403
4.439735497445146,0.0004064194246748355
4.443642921550947,0.0003990685255892976
4.447550345656748,0.0003915082832727655
4.451457769762549,0.000383840038336074
4.45536519386835,0.00037603435545661675
4.459272617974151,0.0003681615695600676
4.463180042079952,0.00036028001568182296
4.467087466185753,0.0003524355899391844
4.470994890291554,0.0003446617495313587
4.474902314397355,0.00033697951273945755
4.4788097385031564,0.00032939745892649787
4.4827171626089575,0.0003201977247091882
4.4866245867147585,0.0003107321559417731
4.4905320108205595,0.0003039023388369473
4.4944394349263606,0.0003002746532412519
4.498346859032162,0.00029808024759117417
4.502254283137963,0.0002932150389131476
4.506161707243764,0.0002792397128235519
4.510069131349565,0.0002474444047727677
4.513976555455366,0.00017130518939442708
4.517883979561167,-0.00010038134956093779
4.521791403666968,-0.000695505250664827
4.525698827772769,-0.0016576013029219404
4.52960625187857,-0.002742210485792344
4.533513675984371,-0.0031294889334907627
4.537421100090172,-0.0018810111553227578
4.541328524195973,0.0018810273094000875
4.545235948301774,0.008324702877239902
4.549143372407575,0.016104718984714664
4.553050796513376,0.022043520513885008
4.556958220619177,0.022813434593986645
4.560865644724978,0.018078227310980455
4.564773068830779,0.009910539775294372
4.56868049293658,0.0021596287300462104
4.572587917042381,-0.0030615212999322503
4.576495341148182,-0.005260375436058775
4.580402765253983,-0.004964353764517267
4.584310189359784,-0.003429676214920486
4.588217613465585,-0.0017921736816260115
4.592125037571386,-0.0006910370337769398
4.596032461677187,-0.0001956300504901533
4.599939885782988,-1.4961402549094937e-07
4.603847309888789,5.347189078292261e-05
4.60775473399459,6.366193970408523e-05
4.611662158100391,7.491882582698415e-05
4.615569582206192,8.431205081678955e-05
4.619477006311993,9.281322512085491e-05
4.6233844304177945,0.00010231085336156288
4.6272918545235955,0.00011477046917514645
4.6311992786293965,0.00013362045485589233
4.6351067027351975,0.00016062209043158368
4.639014126840999,0.000197012041040136
4.6429215509468,0.00026882914441892457
4.646828975052601,0.0003955784603163613
4.650736399158402,0.0005867967717093938
4.654643823264203,0.0008420525848035049
4.658551247370004,0.0011509461290327141
4.662458671475805,0.0014931093570595742
4.666366095581606,0.0018382059447751755
4.670273519687406,0.0021450528242747983
4.674180943793207,0.0023618513472026944
4.678088367899008,0.002456356563248108
4.681995792004809,0.0024154360422868
4.68590321611061,0.0022432074049131643
4.689810640216411,0.001961038322440232
4.693718064322212,0.001607546516899669
4.697625488428013,0.0012385997610417756
4.701532912533814,0.0009107762608393683
4.705440336639615,0.0006375804146908881
4.709347760745416,0.0004225187879437651
4.713255184851217,0.0002646530004022661
4.717162608957018,0.00015855813823654357
4.721070033062819,9.432275398263694e-05
4.72497745716862,5.754886654247226e-05
4.728884881274421,3.246828607483456e-05
4.732792305380222,1.4768064743050227e-05
4.736699729486023,1.7595546786675003e-06
4.740607153591824,-8.830947723724309e-06
4.744514577697625,-1.866879676246035e-05
4.748422001803426,-2.8810997428800337e-05
4.7523294259092275,-3.970620540692864e-05
4.7562368500150285,-5.119472707395383e-05
4.7601442741208295,-6.255741238470222e-05
4.7640516982266305,-7.3709200689684e-05
4.767959122332432,-8.461861770692623e-05
4.771866546438233,-9.503951589439914e-05
4.775773970544034,-0.00010473976220447677
4.779681394649835,-0.0001135012380839372
4.783588818755636,-0.00012111983947396231
4.787496242861437,-0.00012740547681013798
4.791403666967238,-0.0001321820750224539
4.795311091073039,-0.00013528757353530382
4.79921851517884,-0.00013657392626748532
4.803125939284641,-0.0001359071016321998
4.807033363390442,-0.00013316708253705278
4.810940787496243,-0.00012824786638405348
4.814848211602044,-0.00012102054698454533
4.818755635707845,-0.00011136250368917454
4.822663059813646,-9.948221802024233e-05
4.826570483919447,-8.562741147842947e-05
4.830477908025248,-7.005419360847203e-05
4.834385332131049,-5.302706199916152e-05
4.83829275623685,-3.481890228334471e-05
4.842200180342651,-1.571098813792383e-05
4.846107604448452,4.007018716143616e-06
4.850015028554253,2.4037068513844826e-05
4.853922452660054,4.4072723446111456e-05
4.857829876765855,6.379915765982003e-05
4.861737300871656,8.289315725779149e-05
4.865644724977457,0.00010102312029879162
4.869552149083258,0.00011784905679753077
4.873459573189059,0.00013302258872466388
4.87736699729486,0.00014618695000679068
4.881274421400661,0.00015697698652645557
4.885181845506462,0.00016501915612214722
4.889089269612263,0.00016993304776667905
4.8929966937180644,0.00017153341305505755
4.8969041178238655,0.00016991438292793978
4.9008115419296665,0.00016519288288750268
4.9047189660354675,0.00015751399296565877
4.908626390141269,0.00014705094772405597
4.91253381424707,0.00013400513625407777
4.916441238352871,0.0001186061021768431
4.920348662458672,0.00010111154364320638
4.924256086564473,8.180731333375754e-05
4.928163510670274,6.100741845882196e-05
4.932070934776075,3.90540207584605e-05
4.935978358881876,1.6317436502469627e-05
4.939885782987677,-6.8038635096188125e-06
4.943793207093478,-2.98832539485376e-05
4.947700631199279,-5.246595495528368e-05
4.95160805530508,-7.406903214111888e-05
4.955515479410881,-9.418139658756933e-05
4.959422903516682,-0.00011223785213183425
4.963330327622483,-0.00012751388664361435
4.967237751728284,-0.00013991351823566274
4.971145175834085,-0.00014950600757360894
4.975052599939886,-0.00015637212857368005
4.978960024045687,-0.00016060416840270092
4.982867448151488,-0.00016230592747809415
4.986774872257289,-0.00016159271946787997
4.99068229636309,-0.00015859137129067637
4.994589720468891,-0.000153440223115699
4.998497144574692,-0.00014628912836276122
5.002404568680493,-0.00013729945370227412
5.006311992786294,-0.00012664407905524643
5.010219416892095,-0.00011450739759328465
5.014126840997896,-0.00010108531573859288
5.018034265103697,-8.658525316397314e-05
5.021941689209498,-7.12261427928249e-05
5.025849113315299,-5.523843079914536e-05
5.0297565374211,-3.886407660752971e-05
5.033663961526901,-2.2356552893170484e-05
5.0375713856327025,-5.980845581858202e-06
5.0414788097385035,9.98654615001941e-06
5.0453862338443045,2.525760987547623e-05
5.0492936579501055,3.953281991692876e-05
5.053201082055907,5.2501137346196066e-05
5.057108506161708,6.384000998449913e-05
5.061015930267509,7.321537240246109e-05
5.06492335437331,8.037532162362938e-05
5.068830778479111,8.569454997931583e-05
5.072738202584912,8.947418890260212e-05
5.076645626690713,9.190236136968174e-05
5.080553050796514,9.3094736635449e-05
5.084460474902315,9.3094530233499e-05
5.088367899008116,9.187250397612765e-05
5.092275323113917,8.93269659543317e-05
5.096182747219718,8.528377053780865e-05
5.100090171325519,7.949631837495684e-05
5.10399759543132,7.142476864294678e-05
5.107905019537121,5.755519457579342e-05
5.111812443642922,3.177263497933208e-05
5.115719867748723,-2.1238180861859874e-05
5.119627291854524,-0.00012744272556828245
5.123534715960325,-0.0003234566736655126
5.127442140066126,-0.0006565459015842054
5.131349564171927,-0.0011846264876600927
5.135256988277728,-0.001961737485878583
5.139164412383529,-0.002957677763265947
5.14307183648933,-0.004057152589345785
5.146979260595131,-0.005070176215844043
5.150886684700932,-0.005732005835982556
5.154794108806733,-0.00570314158447904
5.158701532912534,-0.004647953346730573
5.162608957018335,-0.0022317215597100226
5.166516381124136,0.0018256050737408443
5.170423805229937,0.007515129332510249
5.174331229335738,0.014536099581320449
5.178238653441539,0.02229590977072768
5.1821460775473405,0.029947319081804022
5.1860535016531415,0.03611030182790876
5.1899609257589425,0.03948785625943706
5.1938683498647435,0.03941475718578018
5.197775773970545,0.03586166984547634
5.201683198076346,0.029435149906210777
5.205590622182147,0.021358335260589698
5.209498046287948,0.012941272837525228
5.213405470393749,0.005151331984777588
5.21731289449955,-0.0013152238330598962
5.221220318605351,-0.006048676605339042
5.225127742711152,-0.008925853775356832
5.229035166816953,-0.010110128240355391
5.232942590922754,-0.009934455000555691
5.236850015028555,-0.00878885035325978
5.240757439134356,-0.00716320537830273
5.244664863240157,-0.005439404674640754
5.248572287345958,-0.0038883993239416346
5.252479711451759,-0.0026702068905847176
5.25638713555756,-0.0018339114216609186
5.260294559663361,-0.0013176634469727454
5.264201983769162,-0.0009982949757072156
5.268109407874963,-0.0008199107811808579
5.272016831980764,-0.0007339439531345844
5.275924256086565,-0.0007012965944173179
5.279831680192366,-0.0006925303208346024
5.283739104298167,-0.0006878662611486038
5.287646528403968,-0.0006771850570781059
5.291553952509769,-0.0006600268632985162
5.29546137661557,-0.0006454374260861989
5.299368800721371,-0.0006352402943236376
5.303276224827172,-0.000624940157606084
5.307183648932973,-0.0006144408132323056
5.311091073038774,-0.0006032735792046485
5.314998497144575,-0.0005905972942290389
5.318905921250376,-0.0005751983177149816
5.3228133453561775,-0.0005554905297755606
5.3267207694619785,-0.0005295153312274395
5.3306281935677795,-0.000494941643590861
5.3345356176735805,-0.00045209194206211403
5.338443041779382,-0.00039862365811496
5.342350465885183,-0.00032518548548472856
5.346257889990984,-0.00022437245944819723
5.350165314096785,-9.084139841826754e-05
5.354072738202586,7.86890960560358e-05
5.357980162308387,0.0002854386392895647
5.361887586414188,0.0005285650634610465
5.365795010519989,0.0008051644176130868
5.36970243462579,0.001110270967652166
5.373609858731591,0.0014368571963486415
5.377517282837392,0.0017758338033367481
5.381424706943193,0.0021160497051145952
5.385332131048994,0.0024444123706351462
5.389239555154795,0.0027458997683236855
5.393146979260596,0.00300155434448882
5.397054403366397,0.0031954299039492194
5.400961827472198,0.003315900970537092
5.404869251577999,0.003355662787098186
5.4087766756838,0.0033117313154917855
5.412684099789601,0.003185443236590717
5.416591523895402,0.0029824559502813434
5.420498948001203,0.0027127475754635685
5.424406372107004,0.002390616950050833
5.428313796212805,0.002034683630970117
5.432221220318606,0.001665397335987182
5.436128644424407,0.0012963467919668461
5.440036068530208,0.0009397047571698298
5.443943492636009,0.0006055401601911023
5.44785091674181,0.00030168832565459773
5.451758340847611,3.375097421321632e-05
5.455665764953412,-0.00019490377745117696
5.459573189059213,-0.000383141416627751
5.463480613165014,-0.000532061034576709
5.4673880372708155,-0.0006449953265292899
5.4712954613766165,-0.000727510591687768
5.4752028854824175,-0.0007872780304334962
5.4791103095882185,-0.0008286977604894103
5.48301773369402,-0.0008540433355690734
5.486925157799821,-0.0008662445959968133
5.490832581905622,-0.0008679387996876157
5.494740006011423,-0.0008614706221471243
5.498647430117224,-0.0008488921564716417
5.502554854223025,-0.0008319629133481278
5.506462278328826,-0.0008121498210542005
5.510369702434627,-0.0007906272254581367
5.514277126540428,-0.0007682768900188703
5.518184550646229,-0.0007456879957859942
5.52209197475203,-0.0007231571413997586
5.525999398857831,-0.0007006883661693762
5.529906822963632,-0.0006786269353824543
5.533814247069433,-0.0006577622349869947
5.537721671175234,-0.0006385230715350381
5.541629095281035,-0.0006212830914255958
5.545536519386836,-0.0006063607809046498
5.549443943492637,-0.0005940194660651529
5.553351367598438,-0.0005844673128470286
5.557258791704239,-0.0005778573270371709
5.56116621581004,-0.0005742873542694443
5.565073639915841,-0.0005738000800246845
5.568981064021642,-0.0005763830296306977
5.572888488127443,-0.0005819685682622604
5.576795912233244,-0.00059043390094112
5.580703336339045,-0.0006016010725359949
5.584610760444846,-0.0006152369677625735
5.588518184550647,-0.0006310533111835158
5.592425608656448,-0.0006487066672084514
5.596333032762249,-0.0006677984400939815
5.60024045686805,-0.0006878748739436774
5.604147880973851,-0.0007084270527080811
5.608055305079652,-0.0007288883472639543
5.6119627291854535,-0.000748582757613002
5.6158701532912545,-0.0007671042374176145
5.6197775773970555,-0.0007841908227366456
5.6236850015028566,-0.0007996105307632416
5.627592425608658,-0.000813161359824842
5.631499849714459,-0.0008246712893831789
5.63540727382026,-0.0008339982800342776
5.639314697926061,-0.0008410302735084562
5.643222122031862,-0.0008456851926703255
5.647129546137663,-0.0008479109415187896
5.651036970243464,-0.000847685405187045
5.654944394349265,-0.0008450164499425815
5.658851818455066,-0.0008399419231871815
5.662759242560867,-0.0008325296534569206
5.666666666666668,-0.0008228774504221671
5.670574090772467,-0.0008111131048875879
5.674481514878268,-0.0007973943887921265
5.678388938984069,-0.0007819090552090347
5.68229636308987,-0.0007648748383458525
5.686203787195671,-0.0007465394535444127
5.690111211301472,-0.0007271805972808407
5.694018635407273,-0.0007071059471655555
5.697926059513074,-0.0006866531619432683
5.701833483618875,-0.0006661898814929836
5.705740907724676,-0.0006461137268279985
5.709648331830477,-0.0006268523000959038
5.713555755936278,-0.0006088631845785814
5.717463180042079,-0.0005926339446922083
5.7213706041478805,-0.0005786526211072348
5.7252780282536815,-0.000566788880140359
5.7291854523594825,-0.0005567880241352517
5.7330928764652835,-0.0005485100199389114
5.737000300571085,-0.0005418196766513113
5.740907724676886,-0.0005365866456253994
5.744815148782687,-0.000532685420467099
5.748722572888488,-0.0005299953370353084
5.752629996994289,-0.0005284005734419004
5.75653742110009,-0.0005277901500517232
5.760444845205891,-0.0005280579294825999
5.764352269311692,-0.0005291026166053285
5.768259693417493,-0.0005308277585436817
5.772167117523294,-0.000533141744674408
5.776074541629095,-0.0005359578066272297
5.779981965734896,-0.0005391940182848452
5.783889389840697,-0.000542773295782927
5.787796813946498,-0.000546623397510123
5.791704238052299,-0.0005506769241080561
5.7956116621581,-0.000554871318471324
5.799519086263901,-0.0005591488657474994
5.803426510369702,-0.00056345669333713
5.807333934475503,-0.0005677467708937385
5.811241358581304,-0.0005719759103238226
5.815148782687105,-0.0005761057657868545
5.819056206792906,-0.0005801028336952824
5.822963630898707,-0.0005839391314528891
5.826871055004508,-0.0005876539589522885
5.830778479110309,-0.0005912820526721123
5.83468590321611,-0.0005948178167365987
5.838593327321911,-0.0005982488143450571
5.842500751427712,-0.0006015557677718681
5.846408175533513,-0.0006047125583664835
5.850315599639314,-0.0006076862265534262
5.854223023745115,-0.0006104369718322903
5.858130447850916,-0.0006129181527777415
5.862037871956717,-0.0006150762870395162
5.8659452960625185,-0.0006168510513424224
5.8698527201683195,-0.0006181752814863391
5.8737601442741205,-0.0006189768032048732
5.8776675683799215,-0.0006192184708786764
5.881574992485723,-0.0006188317610385648
5.885482416591524,-0.0006177432985085247
5.889389840697325,-0.0006158980185406506
5.893297264803126,-0.0006132591668151453
5.897204688908927,-0.00060980829944032
5.901112113014728,-0.000605545282952594
5.905019537120529,-0.0006004882943164949
5.90892696122633,-0.0005946738209246588
5.912834385332131,-0.0005881566605978296
5.916741809437932,-0.00058100992158486
5.920649233543733,-0.0005733250225627108
5.924556657649534,-0.0005662235516992854
5.928464081755335,-0.0005665947604927985
5.932371505861136,-0.0005661071032535737
5.936278929966937,-0.0005638480283411836
5.940186354072738,-0.0005720271890136257
5.944093778178539,-0.0006159764434273223
5.94800120228434,-0.000734149854637121
5.951908626390141,-0.0009781236905962937
5.955816050495942,-0.001412596424156538
5.959723474601743,-0.0020967217366623997
5.963630898707544,-0.0030297996041552065
5.967538322813345,-0.004114048051772799
5.971445746919146,-0.005137526954703237
5.975353171024947,-0.005774115353581399
5.979260595130748,-0.005631680948517663
5.983168019236549,-0.00427882345735787
5.98707544334235,-0.001344374643914078
5.990982867448151,0.0033128721315942343
5.994890291553952,0.009601868541374379
5.998797715659753,0.017308597357098655
6.002705139765554,0.02537120812773408
6.0066125638713554,0.03192189901505127
6.0105199879771565,0.03565911959136389
6.0144274120829575,0.0358919673104658
6.0183348361887585,0.03254018750763113
6.02224226029456,0.026142320992258716
6.026149684400361,0.018068760773670405
6.030057108506162,0.00976200553573308
6.033964532611963,0.0022718252618196544
6.037871956717764,-0.0036773328502265543
6.041779380823565,-0.007686344388091841
6.045686804929366,-0.009681407724992111
6.049594229035167,-0.009914044019672837
6.053501653140968,-0.008960875327070978
6.057409077246769,-0.007462035243489844
6.06131650135257,-0.005777475402002707
6.065223925458371,-0.004202022646039614
6.069131349564172,-0.0029305711896728424
6.073038773669973,-0.0020580826176168944
6.076946197775774,-0.001579585885228503
6.080853621881575,-0.0013901773185066163
6.084761045987376,-0.0012993631557104708
6.088668470093177,-0.0012497135537050286
6.092575894198978,-0.0012357004653475623
6.096483318304779,-0.001239373323472831
6.10039074241058,-0.0012481727679367533
6.104298166516381,-0.0012549306456164084
6.108205590622182,-0.0012578700104100347
6.112113014727983,-0.0012602588495361099
6.116020438833784,-0.0012617750982084745
6.119927862939585,-0.0012618148182928978
6.123835287045386,-0.0012590299437851614
6.127742711151187,-0.001249253586222305
6.131650135256988,-0.0012262367435267245
6.135557559362789,-0.0011826072341611525
6.13946498346859,-0.0011064269641250693
6.143372407574391,-0.0009852512418859513
6.147279831680192,-0.0008064976310804546
6.1511872557859935,-0.0005462564255850614
6.1550946798917945,-0.0002155894484770968
6.1590021039975955,0.0001419999341145989
6.1629095281033965,0.00048686927612668165
6.166816952209198,0.0007832957480546868
6.170724376314999,0.0009994761369530292
6.1746318004208,0.001107526846435004
6.178539224526601,0.0010834838966727828
6.182446648632402,0.0009109635661006917
6.186354072738203,0.0006280110405418925
6.190261496844004,0.00029673120008519055
6.194168920949805,-3.41994686663457e-05
6.198076345055606,-0.00032923291737878497
6.201983769161407,-0.0005659495359873327
6.205891193267208,-0.0007350581526963317
6.209798617373009,-0.0008403960339792612
6.21370604147881,-0.0008989288845787384
6.217613465584611,-0.000933006556445679
6.221520889690412,-0.0009492423667838374
6.225428313796213,-0.000954870593854527
6.229335737902014,-0.000955756340431804
6.233243162007815,-0.0009561896894140406
6.237150586113616,-0.0009588857038239242
6.241058010219417,-0.0009649844268084575
6.244965434325218,-0.0009740508816389599
6.248872858431019,-0.0009849470923321963
6.25278028253682,-0.0009981406963347694
6.256687706642621,-0.0010132785569606424
6.260595130748422,-0.0010299448268053836
6.264502554854223,-0.0010477277358957246
6.268409978960024,-0.0010662195916895602
6.272317403065825,-0.0010850167790759475
6.276224827171626,-0.0011037197603751066
6.280132251277427,-0.001121933075338421
6.284039675383228,-0.0011392653411484363
6.287947099489029,-0.0011553292524188617
6.29185452359483,-0.001169741581194569
6.2957619477006315,-0.001182123176951593
6.2996693718064325,-0.001192080399809331
6.3035767959122335,-0.0011992840401676033
6.3074842200180345,-0.0012036951757703558
6.311391644123836,-0.0012053256773376536
6.315299068229637,-0.001204213822286819
6.319206492335438,-0.00120042429473243
6.323113916441239,-0.0011940481854863213
6.32702134054704,-0.0011852029920575845
6.330928764652841,-0.0011740326186525673
6.334836188758642,-0.0011607073761748733
6.338743612864443,-0.0011454239822253636
6.342651036970244,-0.001128405561102155
6.346558461076045,-0.0011099016438006208
6.350465885181846,-0.0010901881680133914
6.354373309287647,-0.0010695674781303526
6.358280733393448,-0.0010483683252386475
6.362188157499249,-0.001026945867122675
6.36609558160505,-0.001005681668264091
6.370003005710851,-0.000984983699841808
6.373910429816652,-0.0009652856263693485
6.377817853922453,-0.0009468717356625813
6.381725278028254,-0.0009298035213280424
6.385632702134055,-0.0009141445248387507
6.389540126239856,-0.0008999427724054444
6.393447550345657,-0.000887230774976581
6.397354974451458,-0.000876025528238337
6.401262398557259,-0.0008663285126146083
6.40516982266306,-0.00085812569326701
6.409077246768861,-0.0008513875200948768
6.412984670874662,-0.0008460689277352622
6.416892094980463,-0.000842109335562939
6.420799519086264,-0.0008394326476903998
6.424706943192065,-0.0008379472529678558
6.428614367297866,-0.0008375460249832378
6.432521791403667,-0.0008381063220621958
6.4364292155094684,-0.0008394899872680991
6.4403366396152695,-0.0008415433484020362
6.4442440637210705,-0.0008440972180028149
6.4481514878268715,-0.0008469668933469623
6.452058911932673,-0.0008499521564487247
6.455966336038474,-0.0008529781369628241
6.459873760144275,-0.0008560782825776451
6.463781184250076,-0.0008591748196126388
6.467688608355877,-0.0008622257098457551
6.471596032461678,-0.0008652253335368087
6.475503456567479,-0.0008682044894274798
6.47941088067328,-0.0008712303947413132
6.483318304779081,-0.000881259224353819
6.487225728884882,-0.0008936594524906954
6.491133152990683,-0.0009281405468532607
6.495040577096484,-0.001053866106994141
6.498948001202285,-0.0013894538820414305
6.502855425308086,-0.002101648231242226
6.506762849413887,-0.0031809467396588975
6.510670273519688,-0.0040566039407994615
6.514577697625489,-0.0038376598568525865
6.51848512173129,-0.0014727504862622458
6.522392545837091,0.003748258370651989
6.526299969942892,0.011242082615832923
6.530207394048693,0.018427636823367923
6.534114818154494,0.021515613445343466
6.538022242260295,0.01864455508131144
6.541929666366096,0.011138204058559881
6.545837090471897,0.0029814044228145126
6.549744514577698,-0.003048649075824819
6.553651938683499,-0.005958867549381606
6.5575593627893,-0.00609562737266255
6.561466786895101,-0.00467768462314959
6.565374211000902,-0.0030105083845261855
6.569281635106703,-0.001851402971645556
6.573189059212504,-0.0013051855693976102
6.577096483318305,-0.0010917710493908964
6.5810039074241065,-0.0010369219294961945
6.5849113315299075,-0.0010287960678048535
6.5888187556357085,-0.001015502693070011
6.5927261797415095,-0.001001364846573892
6.596633603847311,-0.000989061931434317
6.600541027953112,-0.0009751784082889113
6.604448452058913,-0.000957654202259993
6.608355876164714,-0.0009323094332342576
6.612263300270515,-0.0008928444158627777
6.616170724376316,-0.0008310989880855445
6.620078148482117,-0.0007336268012625479
6.623985572587918,-0.000585727025883448
6.627892996693719,-0.00037926568288676075
6.63180042079952,-0.00011290691065487862
6.635707844905321,0.00020825196861899966
6.639615269011122,0.0005628523652326438
6.643522693116923,0.000911519464180421
6.647430117222724,0.0012139764214835155
6.651337541328525,0.0014299834832375538
6.655244965434326,0.0015183858572211395
6.659152389540127,0.0014588013596620766
6.663059813645928,0.0012770443234663591
6.666967237751729,0.0010047674841834205
6.67087466185753,0.0006755665001286014
6.674782085963331,0.0003249799523831502
6.678689510069132,-9.510655205777771e-06
6.682596934174933,-0.00028961201604554235
6.686504358280734,-0.000501945039129047
6.690411782386535,-0.000656437902560125
6.694319206492336,-0.0007631925364350233
6.698226630598137,-0.000831989167948496
6.702134054703938,-0.0008722863213938059
6.706041478809739,-0.0008932208181627222
6.70994890291554,-0.0009036077767455234
6.713856327021341,-0.0009104518002813814
6.717763751127142,-0.0009153448804701623
6.721671175232943,-0.0009191630071260362
6.7255785993387445,-0.0009226296024480211
6.7294860234445455,-0.0009262985509880941
6.7333934475503465,-0.0009305541996511918
6.7373008716561475,-0.00093561135769521
6.741208295761949,-0.0009415152967310035
6.74511571986775,-0.0009481417507223864
6.749023143973551,-0.0009551969159861322
6.752930568079352,-0.0009626023150188596
6.756837992185153,-0.0009704059138595626
6.760745416290954,-0.0009783283641824601
6.764652840396755,-0.0009861062752344449
6.768560264502556,-0.0009934925110065317
6.772467688608357,-0.0010002561902338581
6.776375112714158,-0.0010061826863956833
6.780282536819959,-0.0010110736277153894
6.78418996092576,-0.00101474689716048
6.788097385031561,-0.0010170366324425816
6.792004809137362,-0.001017793226017443
6.795912233243163,-0.0010168833250849348
6.799819657348964,-0.00101418983158905
6.803727081454765,-0.0010096119022179044
6.807634505560566,-0.0010030649484037352
6.811541929666367,-0.0009944806363229028
6.815449353772168,-0.000983806886895889
6.819356777877969,-0.0009710078757872988
6.82326420198377,-0.0009560640334058586
6.827171626089571,-0.0009389528012112943
6.831079050195372,-0.0009196774581396989
6.834986474301173,-0.0008986393750734693
6.838893898406974,-0.0008762834076624251
6.842801322512775,-0.0008530353376973217
6.846708746618576,-0.0008293018731098497
6.850616170724377,-0.000805470647972635
6.854523594830178,-0.0007819102224992394
6.858431018935979,-0.0007589700830441599
6.86233844304178,-0.0007369806421028288
6.8662458671475814,-0.0007162532383116144
6.8701532912533825,-0.0006970801364478199
6.8740607153591835,-0.0006797345274296845
6.8779681394649845,-0.0006644705283163825
6.881875563570786,-0.0006515231823080237
6.885782987676587,-0.0006411084587456537
6.889690411782388,-0.000633423253111253
6.893597835888189,-0.0006286453870277384
6.89750525999399,-0.0006269336082589611
6.901412684099791,-0.0006284275907097088
6.905320108205592,-0.0006332319508160418
6.909227532311393,-0.0006411691200786333
6.913134956417194,-0.000651882941437277
6.917042380522995,-0.0006650166660876264
6.920949804628796,-0.0006802093300933497
6.924857228734597,-0.0006970957543861292
6.928764652840398,-0.0007153065447656623
6.932672076946199,-0.0007344680918996605
6.936579501052,-0.00075420257132385
6.940486925157801,-0.0007741279434419715
6.944394349263602,-0.0007938579535257801
6.948301773369403,-0.0008130021317150457
6.952209197475204,-0.0008311657930175526
6.956116621581005,-0.0008479500373090995
6.960024045686806,-0.0008629517493334997
6.963931469792607,-0.0008757635987025811
6.967838893898408,-0.0008916284540528766
6.971746318004209,-0.000917043613272449
6.97565374211001,-0.0009290910204194017
6.979561166215811,-0.0009174106894242514
6.983468590321612,-0.0008874422675434599
6.987376014427413,-0.0008604250353594343
6.991283438533214,-0.0008733979067805272
6.995190862639015,-0.0009791994290410358
6.999098286744816,-0.001247200070551859
7.003005710850616,-0.0018237036377372975
7.006913134956417,-0.002789760606248891
7.010820559062218,-0.0038442370803879146
7.014727983168019,-0.004286282538417851
7.01863540727382,-0.0031655886308427296
7.022542831379621,0.000315354011641897
7.026450255485422,0.006615805625063377
7.030357679591223,0.01430536708302459
7.034265103697024,0.018442078421714674
7.038172527802825,0.015489272863206817
7.042079951908626,0.007791116380952022
7.045987376014427,0.0003065486698523058
7.049894800120228,-0.0037617952210058153
7.053802224226029,-0.004341897577326042
7.05770964833183,-0.002923451410445593
7.061617072437631,-0.0013439957300568225
7.065524496543432,-0.00045810097599312694
7.069431920649233,-0.00016856300461021287
7.073339344755034,-9.905381715173293e-05
7.077246768860835,-9.243853283007978e-05
7.081154192966636,-8.736780368307959e-05
7.085061617072437,-8.616799710074295e-05
7.088969041178238,-8.502896782251455e-05
7.092876465284039,-8.10954629649616e-05
7.09678388938984,-6.852756300904987e-05
7.100691313495641,-4.443354380012503e-05
7.104598737601442,7.879470210494304e-06
7.108506161707243,0.00012468129928972963
7.112413585813044,0.00032289444585247045
7.116321009918845,0.0005989776505608267
7.1202284340246464,0.000928925892324129
7.1241358581304475,0.0012682703882989272
7.1280432822362485,0.0015510108724350318
7.1319507063420495,0.0017031207406217536
7.1358581304478506,0.0016928978470882284
7.139765554553652,0.0015216473079227048
7.143672978659453,0.0012209990739120978
7.147580402765254,0.0008529079305419901
7.151487826871055,0.0005061750571000131
7.155395250976856,0.00023021888421267917
7.159302675082657,2.7670268998076673e-05
7.163210099188458,-0.00010595201921594565
7.167117523294259,-0.00018206063008290637
7.17102494740006,-0.00021899963223769264
7.174932371505861,-0.00023916250742784308
7.178839795611662,-0.0002508041382743591
7.182747219717463,-0.00025735948964198264
7.186654643823264,-0.00026155983125860147
7.190562067929065,-0.00026514020875089957
7.194469492034866,-0.00026883944364435714
7.198376916140667,-0.00027240013336325046
7.202284340246468,-0.00027518979820376503
7.206191764352269,-0.000277466595854736
7.21009918845807,-0.00027916661667029064
7.214006612563871,-0.0002802247001139366
7.217914036669672,-0.000280587078113118
7.221821460775473,-0.0002802113750592159
7.225728884881274,-0.0002790666078075475
7.229636308987075,-0.0002771331856773672
7.233543733092876,-0.00027440291045186546
7.237451157198677,-0.00027087897637816967
7.241358581304478,-0.0002665759701673437
7.245266005410279,-0.0002615198709943882
7.24917342951608,-0.0002557354916812018
7.253080853621881,-0.0002492667647560039
7.256988277727682,-0.00024221971269557026
7.260895701833483,-0.00023469967460383633
7.2648031259392845,-0.00022680869620573139
7.2687105500450855,-0.0002186455298471786
7.2726179741508865,-0.00021030563449509501
7.2765253982566875,-0.00020188117573739165
7.280432822362489,-0.00019346102578297338
7.28434024646829,-0.00018513076346173896
7.288247670574091,-0.00017697267422458113
7.292155094679892,-0.0001690657501433864
7.296062518785693,-0.0001614856899110353
7.299969942891494,-0.0001543048988414021
7.303877366997295,-0.00014759248886935517
7.307784791103096,-0.0001414143179862705
7.311692215208897,-0.0001358266780052954
7.315599639314698,-0.00013083096667052132
7.319507063420499,-0.00012641257935245634
7.3234144875263,-0.00012255890078775167
7.327321911632101,-0.00011925930507920179
7.331229335737902,-0.00011650515569574427
7.335136759843703,-0.00011428980547245992
7.339044183949504,-0.00011260859661057268
7.342951608055305,-0.0001114588606774497
7.346859032161106,-0.00011083991860660125
7.350766456266907,-0.00011075308069768085
7.354673880372708,-0.00011120164661648519
7.358581304478509,-0.00011219090539495405
7.36248872858431,-0.00011372813543117048
7.366396152690111,-0.00011582260448936067
7.370303576795912,-0.00011848556969989396
7.374211000901713,-0.00012352166214685593
7.378118425007514,-0.0001630211149210519
7.382025849113315,-0.00019807091537845856
7.385933273219116,-0.00019300652951546055
7.389840697324917,-0.0001521120634462536
7.393748121430718,-0.00011962026340284405
7.397655545536519,-0.0001797125157350513
7.40156296964232,-0.0004565188469105
7.405470393748121,-0.0011141179235146324
7.4093778178539225,-0.002210007592692214
7.4132852419597235,-0.0028027955597447955
7.4171926660655245,-0.0014711982317024068
7.4211000901713255,0.003064694209643698
7.425007514277127,0.010410162444591914
7.428914938382928,0.0170837255327684
7.432822362488729,0.01767592365628001
7.43672978659453,0.01198702424022963
7.440637210700331,0.0036659025890892327
7.444544634806132,-0.0022899458386352375
7.448452058911933,-0.004568528016966588
7.452359483017734,-0.003924102380738192
7.456266907123535,-0.002274887346378549
7.460174331229336,-0.0010032840903836707
7.464081755335137,-0.00047429661029475
7.467989179440938,-0.0003248979019595463
7.471896603546739,-0.0003000057446463258
7.47580402765254,-0.0002942513848660384
7.479711451758341,-0.00028503408633856025
7.483618875864142,-0.00027450675219323727
7.487526299969943,-0.0002598378773078653
7.491433724075744,-0.00023695365137133538
7.495341148181545,-0.00019850084826169976
7.499248572287346,-0.0001414485023996202
7.503155996393147,-4.020344400396559e-05
7.507063420498948,0.00013632323563511642
7.510970844604749,0.0003973465577110876
7.51487826871055,0.0007301799264783026
7.518785692816351,0.0011002351292520088
7.522693116922152,0.0014510223364083475
7.526600541027953,0.0017011819882917485
7.530507965133754,0.0017883589943958132
7.534415389239555,0.0017164602372531173
7.538322813345356,0.0015084948960035667
7.542230237451157,0.001203860074892207
7.546137661556958,0.0008583408032692244
7.5500450856627594,0.0005441100355899463
7.5539525097685605,0.0003181251777717427
7.5578599338743615,0.00016619530705100268
7.5617673579801625,7.068630181005127e-05
7.565674782085964,1.5450104309142672e-05
7.569582206191765,-1.4202941274330883e-05
7.573489630297566,-3.150408884583934e-05
7.577397054403367,-4.678902831478732e-05
7.581304478509168,-6.243363570104254e-05
7.585211902614969,-7.904161169949048e-05
7.58911932672077,-9.701340419014669e-05
7.593026750826571,-0.0001165071292724151
7.596934174932372,-0.00013743857126508784
7.600841599038173,-0.0001594811827063454
7.604749023143974,-0.00018206608435375666
7.608656447249775,-0.0002045265956565398
7.612563871355576,-0.00022658375949787337
7.616471295461377,-0.00024777704607333424
7.620378719567178,-0.0002676704833707532
7.624286143672979,-0.00028588222942637476
7.62819356777878,-0.00030208457232485704
7.632100991884581,-0.0003160039301992719
7.636008415990382,-0.0003274208512311049
7.639915840096183,-0.0003361700136502553
7.643823264201984,-0.0003421402257350359
7.647730688307785,-0.0003452744258121735
7.651638112413586,-0.00034556968225680834
7.655545536519387,-0.0003430771934924943
7.659452960625188,-0.000337902287991199
7.663360384730989,-0.00033020442427330406
7.66726780883679,-0.00032018452996215467
7.671175232942591,-0.0003079889421960742
7.675082657048392,-0.00029396681748281164
7.678990081154193,-0.0002785042635751556
7.682897505259994,-0.0002619666688137461
7.686804929365795,-0.00024469870212707437
7.690712353471596,-0.00022702431303148326
7.6946197775773975,-0.00020924673163116695
7.6985272016831985,-0.000191648468618171
7.7024346257889995,-0.0001744913152723925
7.7063420498948005,-0.00015801634346157973
7.710249474000602,-0.00014244390564133264
7.714156898106403,-0.0001279736348551024
7.718064322212204,-0.00011478444473419168
7.721971746318005,-0.00010303452949775456
7.725879170423806,-9.286136395279652e-05
7.729786594529607,-8.435806248414574e-05
7.733694018635408,-7.749077190180148e-05
7.737601442741209,-7.222015827047478e-05
7.74150886684701,-6.849290021052267e-05
7.745416290952811,-6.623765606781616e-05
7.749323715058612,-6.536506391374038e-05
7.753231139164413,-6.576774154519447e-05
7.757138563270214,-6.732028648459164e-05
7.761045987376015,-6.987927597985915e-05
7.764953411481816,-7.331045797181131e-05
7.768860835587617,-7.747446057168878e-05
7.772768259693418,-8.214529181262993e-05
7.776675683799219,-8.722866219966194e-05
7.78058310790502,-9.27762333809536e-05
7.784490532010821,-9.909077645704966e-05
7.788397956116622,-0.00011323591425101135
7.792305380222423,-0.00014583121582084223
7.796212804328224,-0.00028891916606783093
7.800120228434025,-0.0007411176572356372
7.804027652539826,-0.001678853657255681
7.807935076645627,-0.0026824412469397675
7.811842500751428,-0.0025621176496710306
7.815749924857229,0.00023356595976203702
7.81965734896303,0.00640688703675665
7.823564773068831,0.014151450707661837
7.827472197174632,0.018414574309760914
7.831379621280433,0.015563978187399938
7.835287045386234,0.0077710881665308705
7.8391944694920355,0.00023476632459488132
7.8431018935978365,-0.003920254786391041
7.8470093177036375,-0.0044775339772498935
7.8509167418094385,-0.0031346768443031746
7.85482416591524,-0.0016233573044179815
7.858731590021041,-0.000746565495712768
7.862639014126842,-0.0004118037650156075
7.866546438232643,-0.00032403613422473906
7.870453862338444,-0.00034362469104791144
7.874361286444245,-0.0003790012003256235
7.878268710550046,-0.000386406665893159
7.882176134655847,-0.00036989133058057644
7.886083558761648,-0.00036216542030584515
7.889990982867449,-0.0003466784133490142
7.89389840697325,-0.00030998781414651796
7.897805831079051,-0.00023801963318176604
7.901713255184852,-0.00011436615106962965
7.905620679290653,7.983427004788597e-05
7.909528103396454,0.0003766173948423953
7.913435527502255,0.0007315680451829214
7.917342951608056,0.0010718930415422752
7.921250375713857,0.001339419717233673
7.925157799819658,0.0014905959184107365
7.929065223925459,0.0014964900040674934
7.93297264803126,0.001342790846038377
7.936880072137061,0.0010516405969460542
7.940787496242862,0.0007073398039070918
7.944694920348663,0.00037406218575791066
7.948602344454464,9.556812781148913e-05
7.952509768560265,-0.00010451265693247193
7.956417192666066,-0.00022268112778754939
7.960324616771867,-0.00027556891638059783
7.964232040877668,-0.0002983429181799543
7.968139464983469,-0.0003078547885801047
7.97204688908927,-0.00030750218638648803
7.975954313195071,-0.000302354683740438
7.9798617373008724,-0.0002959586252364073
7.9837691614066735,-0.00029033712792196794
7.9876765855124745,-0.0002859900812978108
7.9915840096182755,-0.0002819950146750833
7.995491433724077,-0.00027829323367009194
7.999398857829878,-0.000275156970248682
8.003306281935679,-0.00027257015774394635
8.00721370604148,-0.0002705205596218774
8.01112113014728,-0.0002689997694813666
8.015028554253082,-0.000268003211054205
8.018935978358883,-0.0002675301382050828
8.022843402464684,-0.0002675836349315897
8.026750826570485,-0.0002681706153642145
8.030658250676286,-0.0002693018237663456
8.034565674782087,-0.00027099183453427057
8.038473098887888,-0.00027326089311070756
8.042380522993689,-0.00027613658098348253
8.04628794709949,-0.00027964470785786787
8.050195371205291,-0.0002838077557627952
8.054102795311092,-0.0002886448802978932
8.058010219416893,-0.0002941705282168504
8.061917643522694,-0.0003003884606562592
8.065825067628495,-0.0003072911167046286
8.069732491734296,-0.0003148539903477548
8.073639915840097,-0.000323035200440567
8.077547339945898,-0.0003317754078614816
8.0814547640517,-0.0003409943099712706
8.0853621881575,-0.000350588236765585
8.089269612263301,-0.0003604329401025288
8.093177036369102,-0.00037038375269030414
8.097084460474903,-0.000380275588087211
8.100991884580704,-0.00039002097619086586
8.104899308686505,-0.0003995465537087275
8.108806732792306,-0.00040852251465453506
8.112714156898107,-0.0004166438755181777
8.116621581003908,-0.0004236388596131327
8.12052900510971,-0.00042926889707646466
8.12443642921551,-0.00043332862486882646
8.128343853321311,-0.00043564588677445857
8.132251277427113,-0.0004360817334011892
8.136158701532914,-0.00043453042218043463
8.140066125638715,-0.0004309194173671987
8.143973549744516,-0.00042520939004007306
8.147880973850317,-0.00041739421810123745
8.151788397956118,-0.0004075009862764592
8.155695822061919,-0.00039558998611509345
8.15960324616772,-0.0003817547159900832
8.16351067027352,-0.0003661218810979593
8.167418094379322,-0.00034885139345884023
8.171325518485123,-0.0003301363719164326
8.175232942590924,-0.00031020314213803067
8.179140366696725,-0.00028931123661451633
8.183047790802526,-0.0002677533946603595
8.186955214908327,-0.0002458555624136181
8.190862639014128,-0.00022397689283593723
8.194770063119929,-0.00020250974571255033
8.19867748722573,-0.00018187968765227862
8.202584911331531,-0.00016254549208753112
8.206492335437332,-0.0001449991392743044
8.210399759543133,-0.00012976581629218283
8.214307183648934,-0.00011740391704433915
8.218214607754735,-0.00010859022200055806
8.222122031860536,-0.00010398541757544372
8.226029455966337,-0.00010329368356970148
8.229936880072138,-0.00010612790380330745
8.23384430417794,-0.00011211120301172174
8.23775172828374,-0.0001208769468458885
8.241659152389541,-0.00013206874187223592
8.245566576495342,-0.00014534043557267614
8.249474000601143,-0.0001603561163446054
8.253381424706944,-0.0001767901135009039
8.257288848812745,-0.00019432699726993597
8.261196272918546,-0.00021266157879554974
8.265103697024347,-0.00023149891013707764
8.269011121130148,-0.0002505542842693359
8.27291854523595,-0.0002695532350826249
8.27682596934175,-0.0002882315373827287
8.280733393447552,-0.0003063352068909161
8.284640817553353,-0.0003236205002439393
8.288548241659154,-0.00033985391499403474
8.292455665764955,-0.00035481218960892267
8.296363089870756,-0.0003682823034718078
8.300270513976557,-0.0003800614768813786
8.304177938082358,-0.00038995717105180745
8.308085362188159,-0.0003977870881127505
8.31199278629396,-0.00040337917110934906
8.31590021039976,-0.00040657160400222713
8.319807634505562,-0.0004072128116674934
8.323715058611363,-0.0004051614598967404
8.327622482717164,-0.0004002864553970452
8.331529906822965,-0.0003924669457909678
8.335437330928766,-0.0003816580195702637
8.339344755034565,-0.0003689006169653906
8.343252179140366,-0.0003545266897159729
8.347159603246167,-0.0003385842425175871
8.351067027351968,-0.00032127610563154713
8.35497445145777,-0.00030295993488491037
8.35888187556357,-0.00028414821167047706
8.362789299669371,-0.0002655082429467907
8.366696723775172,-0.0002478621612381379
8.370604147880973,-0.0002321869246345486
8.374511571986774,-0.00021961431679179552
8.378418996092575,-0.00021101585663108876
8.382326420198376,-0.0002012139903827979
8.386233844304178,-0.0002076314624229235
8.390141268409979,-0.0002557118202782469
8.39404869251578,-0.00037040298641011877
8.39795611662158,-0.0005761572582144586
8.401863540727382,-0.0008969313080217555
8.405770964833183,-0.0013561861830970673
8.409678388938984,-0.001976887305640021
8.413585813044785,-0.0027815044727848137
8.417493237150586,-0.003785485149095179
8.421400661256387,-0.004905168477474451
8.425308085362188,-0.0059743412469392045
8.429215509467989,-0.006810030868438887
8.43312293357379,-0.007213820103284015
8.43703035767959,-0.006971847063146186
8.440937781785392,-0.005854805210058064
8.444845205891193,-0.0036432339591308156
8.448752629996994,-0.00020005690133465415
8.452660054102795,0.004604206138165246
8.456567478208596,0.01071716034121231
8.460474902314397,0.017886791137991326
8.464382326420198,0.025661464207028438
8.468289750525999,0.033389925475191165
8.4721971746318,0.04023783219734481
8.476104598737601,0.04533394205910681
8.480012022843402,0.04798723302375425
8.483919446949203,0.047829771880344846
8.487826871055004,0.04482431157779249
8.491734295160805,0.039264291224867326
8.495641719266606,0.031773836090195656
8.499549143372407,0.023307757602260008
8.503456567478208,0.014862841591907552
8.50736399158401,0.007009264061721386
8.51127141568981,0.0002340033852118728
8.515178839795611,-0.005167242487350621
8.519086263901412,-0.009087692749683499
8.522993688007213,-0.011551939044149953
8.526901112113014,-0.012689499506404018
8.530808536218816,-0.011893351404509879
8.534715960324617,-0.010245479842197074
8.538623384430418,-0.00877517290547009
8.542530808536219,-0.007857695730243188
8.54643823264202,-0.007441155384924179
8.55034565674782,-0.007332233926992903
8.554253080853622,-0.007281218089883763
8.558160504959423,-0.00724826637137123
8.562067929065224,-0.0072212606854227205
8.565975353171025,-0.007192303876040094
8.569882777276826,-0.007158775381391036
8.573790201382627,-0.007127667729704823
8.577697625488428,-0.007104652939017966
8.581605049594229,-0.00706363925333153
8.58551247370003,-0.0069830125681227696
8.589419897805831,-0.00684831554271114
8.593327321911632,-0.0066522476002583075
8.597234746017433,-0.006394664927768141
8.601142170123234,-0.006082580476086721
8.605049594229035,-0.005730163959902328
8.608957018334836,-0.005358741857745451
8.612864442440637,-0.005005914764792677
8.616771866546438,-0.00475834830113831
8.62067929065224,-0.00463229457490475
8.62458671475804,-0.0046242039076263885
8.628494138863841,-0.0047239511436832715
8.632401562969642,-0.004914835650301095
8.636308987075443,-0.005173581317551212
8.640216411181244,-0.005470336558350623
8.644123835287045,-0.005768674308461982
8.648031259392846,-0.006025592026493601
8.651938683498647,-0.006194766925084391
8.655846107604448,-0.006290242029966498
8.65975353171025,-0.0063385322875461544
8.66366095581605,-0.006353792415054257
8.667568379921851,-0.006347755030854165
8.671475804027653,-0.006329730654441703
8.675383228133454,-0.006306607706445163
8.679290652239255,-0.0062828525086253
8.683198076345056,-0.006260509283875337
8.687105500450857,-0.00623920015622096
8.691012924556658,-0.00621674336411122
8.694920348662459,-0.0061943296306049694
8.69882777276826,-0.006172514603457883
8.70273519687406,-0.00615135568130382
8.706642620979862,-0.006130899724520972
8.710550045085663,-0.006111183055231865
8.714457469191464,-0.0060922314573033575
8.718364893297265,-0.006074060176346641
8.722272317403066,-0.00605667391971724
8.726179741508867,-0.006040066856515012
8.730087165614668,-0.006024222617584147
8.733994589720469,-0.00600911429551317
8.73790201382627,-0.005994704444634935
8.741809437932071,-0.005980945081026634
8.745716862037872,-0.005967777682509788
8.749624286143673,-0.005955133188650254
8.753531710249474,-0.00594293200075822
8.757439134355275,-0.005931167166633039
8.761346558461076,-0.005919688262978235
8.765253982566877,-0.005908196608756511
8.769161406672678,-0.005896414240107946
8.77306883077848,-0.005884083940970568
8.77697625488428,-0.005870969243080347
8.780883678990081,-0.005856854425971197
8.784791103095882,-0.005841544516974982
8.788698527201683,-0.005824865291221503
8.792605951307484,-0.005806663271638513
8.796513375413285,-0.005786805728951707
8.800420799519086,-0.005765180681684724
8.804328223624887,-0.00574169689615915
8.808235647730688,-0.005716283886494514
8.81214307183649,-0.005688891914608292
8.81605049594229,-0.005659491990215902
8.819957920048092,-0.00562807587083071
8.823865344153893,-0.005594656061764026
8.827772768259694,-0.005559265816125103
8.831680192365495,-0.0055218846726814465
8.835587616471296,-0.005482748883699571
8.839495040577097,-0.005442333460296484
8.843402464682898,-0.005401091225122607
8.847309888788699,-0.005359452156553807
8.8512173128945,-0.005317823388691389
8.8551247370003,-0.005276589211362104
8.859032161106102,-0.005236111070118143
8.862939585211903,-0.0051967275662371405
8.866847009317704,-0.005158754456722173
8.870754433423505,-0.005122484654301758
8.874661857529306,-0.005088188227429857
8.878569281635107,-0.005056112400285872
8.882476705740908,-0.00502648155277465
8.886384129846709,-0.004999497220526478
8.89029155395251,-0.004975338094897084
8.894198978058311,-0.0049541600229676425
8.898106402164112,-0.004936096007544767
8.902013826269913,-0.004921256207160513
8.905921250375714,-0.004910461667725616
8.909828674481515,-0.004912846228841117
8.913736098587316,-0.004910304951697461
8.917643522693117,-0.004893785040301899
8.921550946798918,-0.004876779365502835
8.92545837090472,-0.004895326464989823
8.92936579501052,-0.005008010543293567
8.933273219116321,-0.005299592279679666
8.937180643222122,-0.005979558011177351
8.941088067327923,-0.007039264351086091
8.944995491433724,-0.007956458031546251
8.948902915539525,-0.007734235466663689
8.952810339645326,-0.005262826457216634
8.956717763751127,0.0002984668746708781
8.960625187856929,0.007972243445556497
8.96453261196273,0.014742611159939242
8.96844003606853,0.01645649884184462
8.972347460174332,0.012204385247850499
8.976254884280133,0.004154653237247395
8.980162308385934,-0.0034980717137499872
8.984069732491735,-0.008348998505163943
8.987977156597536,-0.009988801151257531
8.991884580703337,-0.009239835249803787
8.995792004809138,-0.007552285552275244
8.999699428914939,-0.0060581659162402095
9.00360685302074,-0.005239292413859262
9.00751427712654,-0.004922186260164103
9.011421701232342,-0.004796157971259424
9.015329125338143,-0.004752703708136842
9.019236549443944,-0.004723015340911194
9.023143973549745,-0.00468354741694444
9.027051397655546,-0.004646004498073333
9.030958821761347,-0.004607625605002035
9.034866245867148,-0.0045667476441325836
9.038773669972949,-0.004519649585009487
9.04268109407875,-0.004459555669427337
9.046588518184551,-0.00437663541143081
9.050495942290352,-0.004258003597314668
9.054403366396153,-0.004080414369552035
9.058310790501954,-0.0038157271122454244
9.062218214607755,-0.0034943549505889494
9.066125638713556,-0.003150744621736174
9.070033062819357,-0.002817682608296494
9.073940486925158,-0.002526295138335139
9.07784791103096,-0.0023060481853731654
9.08175533513676,-0.0021847474683874646
9.085662759242561,-0.0021885384518107592
9.089570183348362,-0.002341880037710445
9.093477607454163,-0.0026220486972945824
9.097385031559964,-0.0029563031916879376
9.101292455665766,-0.0032964495911429067
9.105199879771567,-0.003605955450888522
9.109107303877368,-0.003859949811130455
9.113014727983169,-0.004045223197051013
9.11692215208897,-0.004160227618809143
9.12082957619477,-0.004215076571540426
9.124737000300572,-0.004231545035357086
9.128644424406373,-0.004238898051876618
9.132551848512174,-0.004238806569106178
9.136459272617975,-0.004232825868235139
9.140366696723776,-0.004224153107645849
9.144274120829577,-0.004214671092239542
9.148181544935378,-0.004204948273436333
9.152088969041179,-0.004194871014454984
9.15599639314698,-0.0041846557266092795
9.159903817252781,-0.004174358615960357
9.163811241358582,-0.004164012527305029
9.167718665464383,-0.004153626945544375
9.171626089570184,-0.004143216326807079
9.175533513675985,-0.0041328821954326285
9.179440937781786,-0.004122545429674027
9.183348361887587,-0.004112105639876841
9.187255785993388,-0.0041014703289583895
9.19116321009919,-0.004090554892407744
9.19507063420499,-0.004079282618285729
9.198978058310791,-0.004067584687224924
9.202885482416592,-0.004055400172429661
9.206792906522393,-0.004042676039676024
9.210700330628194,-0.004029367147311853
9.214607754733995,-0.00401543624625674
9.218515178839796,-0.004000853980002029
9.222422602945597,-0.0039855988846108185
9.226330027051398,-0.003969657388717961
9.2302374511572,-0.003953023813530063
9.234144875263,-0.003935700372825481
9.238052299368801,-0.003917697172954327
9.241959723474602,-0.0038990322128384667
9.245867147580404,-0.003879731383971519
9.249774571686205,-0.003859828470418855
9.253681995792006,-0.0038393651488175997
9.257589419897807,-0.0038183909883766323
9.261496844003608,-0.003796963450876584
9.265404268109409,-0.003775151032358779
9.26931169221521,-0.003753090574945347
9.27321911632101,-0.0037309079186430417
9.277126540426812,-0.0037087057791401266
9.281033964532613,-0.0036865797187854697
9.284941388638414,-0.003664618146588543
9.288848812744215,-0.0036429023182194217
9.292756236850016,-0.003621506336008785
9.296663660955817,-0.003600497148947917
9.300571085061618,-0.0035799345526887046
9.304478509167419,-0.0035598711895436378
9.30838593327322,-0.003540352548485813
9.312293357379021,-0.0035214169651489277
9.316200781484822,-0.0035030956218272844
9.320108205590623,-0.0034854125474757906
9.324015629696424,-0.0034683846177099554
9.327923053802225,-0.0034520215548058935
9.331830477908026,-0.003436325927700323
9.335737902013827,-0.0034212931519905653
9.339645326119628,-0.0034069114899345464
9.34355275022543,-0.003393162050450795
9.34746017433123,-0.0033800187891184453
9.351367598437031,-0.0033674485081772346
9.355275022542832,-0.0033554108565275035
9.359182446648633,-0.003343856527996271
9.363089870754434,-0.003332741150646426
9.366997294860235,-0.0033221387610300208
9.370904718966036,-0.003312136297844494
9.374812143071837,-0.003302804924826468
9.378719567177638,-0.00329420003075175
9.38262699128344,-0.003286361229435331
9.38653441538924,-0.003279312359731387
9.390441839495042,-0.003273061485533278
9.394349263600843,-0.003267600895773548
9.398256687706644,-0.0032629071044239255
9.402164111812445,-0.003258940850495323
9.406071535918246,-0.0032556470980378387
9.409978960024047,-0.003252955036140753
9.413886384129848,-0.0032507780789325313
9.417793808235649,-0.0032490138655808243
9.42170123234145,-0.003247544260292466
9.42560865644725,-0.003246235352313476
9.429516080553052,-0.003244937455929055
9.433423504658853,-0.0032434851104635926
9.437330928764654,-0.0032416970802806584
9.441238352870455,-0.003239376354783009
9.445145776976256,-0.0032363101484125844
9.449053201082057,-0.003232269900650509
9.452960625187858,-0.003229857862976076
9.456868049293659,-0.003225132636254721
9.46077547339946,-0.003217130470110941
9.464682897505261,-0.0032215812832663234
9.468590321611062,-0.0032709626745561124
9.472497745716863,-0.003404502752742466
9.476405169822664,-0.003714552625264465
9.480312593928465,-0.004369519770993274
9.484220018034266,-0.005351565287253075
9.488127442140067,-0.006433770959196894
9.492034866245868,-0.007182955332361634
9.49594229035167,-0.007109441859196235
9.49984971445747,-0.00528404839198527
9.503757138563271,-0.0011335154867628946
9.507664562669072,0.005200026511367211
9.511571986774873,0.012859057468231815
9.515479410880674,0.02026118321849229
9.519386834986475,0.025001954756901278
9.523294259092276,0.025173502348528116
9.527201683198077,0.02059196308334204
9.531109107303879,0.012854377840471913
9.53501653140968,0.004566065714531074
9.53892395551548,-0.00245244105125755
9.542831379621282,-0.007168683571538985
9.546738803727083,-0.00934974972838521
9.550646227832884,-0.009425260982806372
9.554553651938685,-0.008173362626662172
9.558461076044486,-0.006485174873746794
9.562368500150287,-0.004961236210521744
9.566275924256088,-0.003902003626433394
9.570183348361889,-0.0033091852174896162
9.57409077246769,-0.0030113943068678394
9.57799819657349,-0.002897066122976746
9.581905620679292,-0.0028839533309159096
9.585813044785093,-0.002911156579318533
9.589720468890894,-0.0029391245003514504
9.593627892996695,-0.002949653709715126
9.597535317102496,-0.0029458888066436545
9.601442741208297,-0.002949794595695576
9.605350165314098,-0.0029581400948232887
9.609257589419899,-0.002963839883196319
9.6131650135257,-0.0029644907725684382
9.617072437631501,-0.0029563904243716022
9.620979861737302,-0.002934537349715951
9.624887285843103,-0.002892630909389809
9.628794709948904,-0.002823071313859684
9.632702134054705,-0.0027169596232702684
9.636609558160506,-0.002554969800140975
9.640516982266307,-0.002315184915368842
9.644424406372108,-0.0020201922445324183
9.64833183047791,-0.0016936224757462155
9.65223925458371,-0.0013574527570423575
9.656146678689511,-0.0010320066963705815
9.660054102795312,-0.000735954361598236
9.663961526901113,-0.00048631228051028647
9.667868951006914,-0.0002984434408093055
9.671776375112714,-0.0001860572901155157
9.675683799218515,-0.00016120973596660997
9.679591223324316,-0.00023430314581807587
9.683498647430117,-0.00041408634704293837
9.687406071535918,-0.000687122347873322
9.691313495641719,-0.001003239190344859
9.69522091974752,-0.0013327660410872469
9.699128343853321,-0.0016517096560797165
9.703035767959122,-0.0019413928134462285
9.706943192064923,-0.0021884543134554737
9.710850616170724,-0.0023848489785208747
9.714758040276525,-0.0025278476532005823
9.718665464382326,-0.0026200372041974796
9.722572888488127,-0.0026693205203591796
9.726480312593928,-0.0026889165126780254
9.73038773669973,-0.0026970591201434468
9.73429516080553,-0.0026999957878170804
9.738202584911331,-0.0026966290790874843
9.742110009017132,-0.0026891914055417222
9.746017433122933,-0.0026795375944423535
9.749924857228734,-0.0026691448887274294
9.753832281334535,-0.002659112947010496
9.757739705440336,-0.0026501638435805935
9.761647129546137,-0.0026426420684022554
9.765554553651938,-0.0026365145271155088
9.76946197775774,-0.002631370541035875
9.77336940186354,-0.0026264557743609545
9.777276825969341,-0.0026217097561879116
9.781184250075142,-0.0026172751050493478
9.785091674180943,-0.0026130946125475355
9.788999098286745,-0.0026091151075875135
9.792906522392546,-0.002605287456377086
9.796813946498347,-0.0026015665624268217
9.800721370604148,-0.0025979113665500577
9.804628794709949,-0.0025942848468628946
9.80853621881575,-0.0025906540187842003
9.81244364292155,-0.002586989935035607
9.816351067027352,-0.0025832676856415147
9.820258491133153,-0.0025794663979290876
9.824165915238954,-0.0025755692365282555
9.828073339344755,-0.0025715634033717156
9.831980763450556,-0.0025674401376949295
9.835888187556357,-0.002563194716036125
9.839795611662158,-0.002558826452236296
9.843703035767959,-0.0025543386974392016
9.84761045987376,-0.002549738840091367
9.851517883979561,-0.0025450383817400626
9.855425308085362,-0.0025402326376525075
9.859332732191163,-0.00253523264854299
9.863240156296964,-0.002529936986061378
9.867147580402765,-0.002524254419301666
9.871055004508566,-0.0025181039148019693
9.874962428614367,-0.0025114146365445293
9.878869852720168,-0.00250412594595571
9.88277727682597,-0.002496187401905999
9.88668470093177,-0.002487558760710008
9.890592125037571,-0.002478209976126473
9.894499549143372,-0.002468121199358253
9.898406973249173,-0.002457282779052331
9.902314397354974,-0.0024456952612998137
9.906221821460775,-0.002433369389635932
9.910129245566576,-0.0024203261050400396
9.914036669672377,-0.002406596545935615
9.917944093778178,-0.0023922220481902598
9.92185151788398,-0.0023772541451157
9.92575894198978,-0.0023617545674677843
9.929666366095582,-0.0023457952434464864
9.933573790201383,-0.0023294582986959026
9.937481214307184,-0.002312836056304254
9.941388638412985,-0.002296031036803885
9.945296062518786,-0.002279155958171264
9.949203486624587,-0.002262333735826982
9.953110910730388,-0.002245697482635755
9.957018334836189,-0.0022293905089064234
9.96092575894199,-0.0022135644922776027
9.96483318304779,-0.0021982304827868615
9.968740607153592,-0.002183376148825356
9.972648031259393,-0.0021690456249260576
9.976555455365194,-0.0021552744995798046
9.980462879470995,-0.002142089815235307
9.984370303576796,-0.0021295100682991413
9.988277727682597,-0.002117545209135754
9.992185151788398,-0.0021061966420674615
9.996092575894199,-0.002095457225374447
10.0,-0.0020853112712947647
